# Al photoionisation cross section
# Alan Heays 2016-12-08
# Reference: mendoza1996
# wavelength: Wavelength (nm)
# photoabsorption: Photoabsorption cross section (cm2)
# photoionisation: Photoionisation cross section (cm2)
# 
# wavelength   photoabsorption   photoionisation
  13.9000000       3.78068e-21       3.78068e-21
  14.0000000       3.84193e-21       3.84193e-21
  14.1000000       3.92404e-21       3.92404e-21
  14.2000000       4.00887e-21       4.00887e-21
  14.3000000       4.09416e-21       4.09416e-21
  14.4000000       4.18018e-21       4.18018e-21
  14.5000000       4.26874e-21       4.26874e-21
  14.6000000       4.35753e-21       4.35753e-21
  14.7000000       4.44721e-21       4.44721e-21
  14.8000000       4.53917e-21       4.53917e-21
  14.9000000       4.63125e-21       4.63125e-21
  15.0000000       4.72457e-21       4.72457e-21
  15.1000000       4.82069e-21       4.82069e-21
  15.2000000       4.91692e-21       4.91692e-21
  15.3000000       5.01416e-21       5.01416e-21
  15.4000000       5.11386e-21       5.11386e-21
  15.5000000       5.21366e-21       5.21366e-21
  15.6000000       5.31444e-21       5.31444e-21
  15.7000000       5.41839e-21       5.41839e-21
  15.8000000       5.52258e-21       5.52258e-21
  15.9000000       5.62733e-21       5.62733e-21
  16.0000000       5.73519e-21       5.73519e-21
  16.1000000       5.84353e-21       5.84353e-21
  16.2000000       5.95207e-21       5.95207e-21
  16.3000000       6.06367e-21       6.06367e-21
  16.4000000       6.17631e-21       6.17631e-21
  16.5000000       6.28895e-21       6.28895e-21
  16.6000000       6.40403e-21       6.40403e-21
  16.7000000       6.52129e-21       6.52129e-21
  16.8000000       6.63855e-21       6.63855e-21
  16.9000000       6.75699e-21       6.75699e-21
  17.0000000       6.87903e-21       6.87903e-21
  17.1000000       7.00132e-21       7.00132e-21
  17.2000000       7.12379e-21       7.12379e-21
  17.3000000       7.24959e-21       7.24959e-21
  17.4000000       7.37664e-21       7.37664e-21
  17.5000000       7.50369e-21       7.50369e-21
  17.6000000       7.63234e-21       7.63234e-21
  17.7000000       7.76435e-21       7.76435e-21
  17.8000000       7.89646e-21       7.89646e-21
  17.9000000       8.02875e-21       8.02875e-21
  18.0000000       8.16494e-21       8.16494e-21
  18.1000000       8.30275e-21       8.30275e-21
  18.2000000       8.44056e-21       8.44056e-21
  18.3000000       8.57942e-21       8.57942e-21
  18.4000000       8.72225e-21       8.72225e-21
  18.5000000       8.86545e-21       8.86545e-21
  18.6000000       9.00866e-21       9.00866e-21
  18.7000000       9.15443e-21       9.15443e-21
  18.8000000       9.30353e-21       9.30353e-21
  18.9000000       9.45264e-21       9.45264e-21
  19.0000000       9.60183e-21       9.60183e-21
  19.1000000       9.75511e-21       9.75511e-21
  19.2000000       9.91064e-21       9.91064e-21
  19.3000000       1.00662e-20       1.00662e-20
  19.4000000       1.02220e-20       1.02220e-20
  19.5000000       1.03814e-20       1.03814e-20
  19.6000000       1.05420e-20       1.05420e-20
  19.7000000       1.07025e-20       1.07025e-20
  19.8000000       1.08639e-20       1.08639e-20
  19.9000000       1.10321e-20       1.10321e-20
  20.0000000       1.12020e-20       1.12020e-20
  20.1000000       1.13719e-20       1.13719e-20
  20.2000000       1.15421e-20       1.15421e-20
  20.3000000       1.17153e-20       1.17153e-20
  20.4000000       1.18892e-20       1.18892e-20
  20.5000000       1.20631e-20       1.20631e-20
  20.6000000       1.22374e-20       1.22374e-20
  20.7000000       1.24178e-20       1.24178e-20
  20.8000000       1.26003e-20       1.26003e-20
  20.9000000       1.27827e-20       1.27827e-20
  21.0000000       1.29653e-20       1.29653e-20
  21.1000000       1.31514e-20       1.31514e-20
  21.2000000       1.33397e-20       1.33397e-20
  21.3000000       1.35280e-20       1.35280e-20
  21.4000000       1.37163e-20       1.37163e-20
  21.5000000       1.39086e-20       1.39086e-20
  21.6000000       1.41069e-20       1.41069e-20
  21.7000000       1.43052e-20       1.43052e-20
  21.8000000       1.45036e-20       1.45036e-20
  21.9000000       1.47031e-20       1.47031e-20
  22.0000000       1.49081e-20       1.49081e-20
  22.1000000       1.51138e-20       1.51138e-20
  22.2000000       1.53196e-20       1.53196e-20
  22.3000000       1.55254e-20       1.55254e-20
  22.4000000       1.57355e-20       1.57355e-20
  22.5000000       1.59483e-20       1.59483e-20
  22.6000000       1.61611e-20       1.61611e-20
  22.7000000       1.63738e-20       1.63738e-20
  22.8000000       1.65887e-20       1.65887e-20
  22.9000000       1.68117e-20       1.68117e-20
  23.0000000       1.70355e-20       1.70355e-20
  23.1000000       1.72593e-20       1.72593e-20
  23.2000000       1.74830e-20       1.74830e-20
  23.3000000       1.77111e-20       1.77111e-20
  23.4000000       1.79432e-20       1.79432e-20
  23.5000000       1.81753e-20       1.81753e-20
  23.6000000       1.84073e-20       1.84073e-20
  23.7000000       1.86398e-20       1.86398e-20
  23.8000000       1.88780e-20       1.88780e-20
  23.9000000       1.91181e-20       1.91181e-20
  24.0000000       1.93581e-20       1.93581e-20
  24.1000000       1.95981e-20       1.95981e-20
  24.2000000       1.98398e-20       1.98398e-20
  24.3000000       2.00902e-20       2.00902e-20
  24.4000000       2.03418e-20       2.03418e-20
  24.5000000       2.05935e-20       2.05935e-20
  24.6000000       2.08451e-20       2.08451e-20
  24.7000000       2.10986e-20       2.10986e-20
  24.8000000       2.13587e-20       2.13587e-20
  24.9000000       2.16194e-20       2.16194e-20
  25.0000000       2.18801e-20       2.18801e-20
  25.1000000       2.21408e-20       2.21408e-20
  25.2000000       2.24037e-20       2.24037e-20
  25.3000000       2.26744e-20       2.26744e-20
  25.4000000       2.29457e-20       2.29457e-20
  25.5000000       2.32170e-20       2.32170e-20
  25.6000000       2.34883e-20       2.34883e-20
  25.7000000       2.37615e-20       2.37615e-20
  25.8000000       2.40436e-20       2.40436e-20
  25.9000000       2.43269e-20       2.43269e-20
  26.0000000       2.46101e-20       2.46101e-20
  26.1000000       2.48933e-20       2.48933e-20
  26.2000000       2.51774e-20       2.51774e-20
  26.3000000       2.54698e-20       2.54698e-20
  26.4000000       2.57644e-20       2.57644e-20
  26.5000000       2.60589e-20       2.60589e-20
  26.6000000       2.63535e-20       2.63535e-20
  26.7000000       2.66481e-20       2.66481e-20
  26.8000000       2.69490e-20       2.69490e-20
  26.9000000       2.72544e-20       2.72544e-20
  27.0000000       2.75599e-20       2.75599e-20
  27.1000000       2.78653e-20       2.78653e-20
  27.2000000       2.81708e-20       2.81708e-20
  27.3000000       2.84795e-20       2.84795e-20
  27.4000000       2.87981e-20       2.87981e-20
  27.5000000       2.91175e-20       2.91175e-20
  27.6000000       2.94368e-20       2.94368e-20
  27.7000000       2.97562e-20       2.97562e-20
  27.8000000       3.00758e-20       3.00758e-20
  27.9000000       3.04038e-20       3.04038e-20
  28.0000000       3.07364e-20       3.07364e-20
  28.1000000       3.10689e-20       3.10689e-20
  28.2000000       3.14015e-20       3.14015e-20
  28.3000000       3.17341e-20       3.17341e-20
  28.4000000       3.20685e-20       3.20685e-20
  28.5000000       3.24124e-20       3.24124e-20
  28.6000000       3.27576e-20       3.27576e-20
  28.7000000       3.31028e-20       3.31028e-20
  28.8000000       3.34480e-20       3.34480e-20
  28.9000000       3.37932e-20       3.37932e-20
  29.0000000       3.41429e-20       3.41429e-20
  29.1000000       3.45015e-20       3.45015e-20
  29.2000000       3.48604e-20       3.48604e-20
  29.3000000       3.52192e-20       3.52192e-20
  29.4000000       3.55781e-20       3.55781e-20
  29.5000000       3.59369e-20       3.59369e-20
  29.6000000       3.63034e-20       3.63034e-20
  29.7000000       3.66786e-20       3.66786e-20
  29.8000000       3.70538e-20       3.70538e-20
  29.9000000       3.74290e-20       3.74290e-20
  30.0000000       3.78042e-20       3.78042e-20
  30.1000000       3.81794e-20       3.81794e-20
  30.2000000       3.85614e-20       3.85614e-20
  30.3000000       3.89505e-20       3.89505e-20
  30.4000000       3.93396e-20       3.93396e-20
  30.5000000       3.97287e-20       3.97287e-20
  30.6000000       4.01178e-20       4.01178e-20
  30.7000000       4.05069e-20       4.05069e-20
  30.8000000       4.09027e-20       4.09027e-20
  30.9000000       4.13082e-20       4.13082e-20
  31.0000000       4.17137e-20       4.17137e-20
  31.1000000       4.21192e-20       4.21192e-20
  31.2000000       4.25248e-20       4.25248e-20
  31.3000000       4.29303e-20       4.29303e-20
  31.4000000       4.33395e-20       4.33395e-20
  31.5000000       4.37600e-20       4.37600e-20
  31.6000000       4.41812e-20       4.41812e-20
  31.7000000       4.46024e-20       4.46024e-20
  31.8000000       4.50236e-20       4.50236e-20
  31.9000000       4.54448e-20       4.54448e-20
  32.0000000       4.58671e-20       4.58671e-20
  32.1000000       4.63023e-20       4.63023e-20
  32.2000000       4.67414e-20       4.67414e-20
  32.3000000       4.71805e-20       4.71805e-20
  32.4000000       4.76196e-20       4.76196e-20
  32.5000000       4.80587e-20       4.80587e-20
  32.6000000       4.84978e-20       4.84978e-20
  32.7000000       4.89441e-20       4.89441e-20
  32.8000000       4.94016e-20       4.94016e-20
  32.9000000       4.98594e-20       4.98594e-20
  33.0000000       5.03171e-20       5.03171e-20
  33.1000000       5.07748e-20       5.07748e-20
  33.2000000       5.12325e-20       5.12325e-20
  33.3000000       5.16909e-20       5.16909e-20
  33.4000000       5.21618e-20       5.21618e-20
  33.5000000       5.26372e-20       5.26372e-20
  33.6000000       5.31126e-20       5.31126e-20
  33.7000000       5.35880e-20       5.35880e-20
  33.8000000       5.40634e-20       5.40634e-20
  33.9000000       5.45388e-20       5.45388e-20
  34.0000000       5.50172e-20       5.50172e-20
  34.1000000       5.55103e-20       5.55103e-20
  34.2000000       5.60053e-20       5.60053e-20
  34.3000000       5.65004e-20       5.65004e-20
  34.4000000       5.69954e-20       5.69954e-20
  34.5000000       5.74905e-20       5.74905e-20
  34.6000000       5.79855e-20       5.79855e-20
  34.7000000       5.84853e-20       5.84853e-20
  34.8000000       5.89996e-20       5.89996e-20
  34.9000000       5.95148e-20       5.95148e-20
  35.0000000       6.00301e-20       6.00301e-20
  35.1000000       6.05454e-20       6.05454e-20
  35.2000000       6.10607e-20       6.10607e-20
  35.3000000       6.15759e-20       6.15759e-20
  35.4000000       6.20962e-20       6.20962e-20
  35.5000000       6.26323e-20       6.26323e-20
  35.6000000       6.31695e-20       6.31695e-20
  35.7000000       6.37067e-20       6.37067e-20
  35.8000000       6.42439e-20       6.42439e-20
  35.9000000       6.47812e-20       6.47812e-20
  36.0000000       6.53184e-20       6.53184e-20
  36.1000000       6.58585e-20       6.58585e-20
  36.2000000       6.64143e-20       6.64143e-20
  36.3000000       6.69725e-20       6.69725e-20
  36.4000000       6.75306e-20       6.75306e-20
  36.5000000       6.80888e-20       6.80888e-20
  36.6000000       6.86469e-20       6.86469e-20
  36.7000000       6.92051e-20       6.92051e-20
  36.8000000       6.97638e-20       6.97638e-20
  36.9000000       7.03380e-20       7.03380e-20
  37.0000000       7.09187e-20       7.09187e-20
  37.1000000       7.14994e-20       7.14994e-20
  37.2000000       7.20802e-20       7.20802e-20
  37.3000000       7.26609e-20       7.26609e-20
  37.4000000       7.32416e-20       7.32416e-20
  37.5000000       7.38223e-20       7.38223e-20
  37.6000000       7.44107e-20       7.44107e-20
  37.7000000       7.50150e-20       7.50150e-20
  37.8000000       7.56197e-20       7.56197e-20
  37.9000000       7.62244e-20       7.62244e-20
  38.0000000       7.68292e-20       7.68292e-20
  38.1000000       7.74339e-20       7.74339e-20
  38.2000000       7.80387e-20       7.80387e-20
  38.3000000       7.86440e-20       7.86440e-20
  38.4000000       7.92662e-20       7.92662e-20
  38.5000000       7.98965e-20       7.98965e-20
  38.6000000       8.05267e-20       8.05267e-20
  38.7000000       8.11570e-20       8.11570e-20
  38.8000000       8.17872e-20       8.17872e-20
  38.9000000       8.24174e-20       8.24174e-20
  39.0000000       8.30477e-20       8.30477e-20
  39.1000000       8.36806e-20       8.36806e-20
  39.2000000       8.43316e-20       8.43316e-20
  39.3000000       8.49861e-20       8.49861e-20
  39.4000000       8.56406e-20       8.56406e-20
  39.5000000       8.62951e-20       8.62951e-20
  39.6000000       8.69497e-20       8.69497e-20
  39.7000000       8.76042e-20       8.76042e-20
  39.8000000       8.82587e-20       8.82587e-20
  39.9000000       8.89177e-20       8.89177e-20
  40.0000000       8.95975e-20       8.95975e-20
  40.1000000       9.02800e-20       9.02800e-20
  40.2000000       9.09624e-20       9.09624e-20
  40.3000000       9.16449e-20       9.16449e-20
  40.4000000       9.23274e-20       9.23274e-20
  40.5000000       9.30098e-20       9.30098e-20
  40.6000000       9.36923e-20       9.36923e-20
  40.7000000       9.43782e-20       9.43782e-20
  40.8000000       9.50840e-20       9.50840e-20
  40.9000000       9.57931e-20       9.57931e-20
  41.0000000       9.65022e-20       9.65022e-20
  41.1000000       9.72113e-20       9.72113e-20
  41.2000000       9.79203e-20       9.79203e-20
  41.3000000       9.86294e-20       9.86294e-20
  41.4000000       9.93385e-20       9.93385e-20
  41.5000000       1.00049e-19       1.00049e-19
  41.6000000       1.00780e-19       1.00780e-19
  41.7000000       1.01519e-19       1.01519e-19
  41.8000000       1.02259e-19       1.02259e-19
  41.9000000       1.02998e-19       1.02998e-19
  42.0000000       1.03737e-19       1.03737e-19
  42.1000000       1.04476e-19       1.04476e-19
  42.2000000       1.05215e-19       1.05215e-19
  42.3000000       1.05954e-19       1.05954e-19
  42.4000000       1.06706e-19       1.06706e-19
  42.5000000       1.07478e-19       1.07478e-19
  42.6000000       1.08249e-19       1.08249e-19
  42.7000000       1.09020e-19       1.09020e-19
  42.8000000       1.09791e-19       1.09791e-19
  42.9000000       1.10563e-19       1.10563e-19
  43.0000000       1.11334e-19       1.11334e-19
  43.1000000       1.12105e-19       1.12105e-19
  43.2000000       1.12878e-19       1.12878e-19
  43.3000000       1.13673e-19       1.13673e-19
  43.4000000       1.14475e-19       1.14475e-19
  43.5000000       1.15277e-19       1.15277e-19
  43.6000000       1.16079e-19       1.16079e-19
  43.7000000       1.16880e-19       1.16880e-19
  43.8000000       1.17682e-19       1.17682e-19
  43.9000000       1.18484e-19       1.18484e-19
  44.0000000       1.19286e-19       1.19286e-19
  44.1000000       1.20093e-19       1.20093e-19
  44.2000000       1.20921e-19       1.20921e-19
  44.3000000       1.21752e-19       1.21752e-19
  44.4000000       1.22583e-19       1.22583e-19
  44.5000000       1.23414e-19       1.23414e-19
  44.6000000       1.24245e-19       1.24245e-19
  44.7000000       1.25076e-19       1.25076e-19
  44.8000000       1.25907e-19       1.25907e-19
  44.9000000       1.26738e-19       1.26738e-19
  45.0000000       1.27578e-19       1.27578e-19
  45.1000000       1.28446e-19       1.28446e-19
  45.2000000       1.29315e-19       1.29315e-19
  45.3000000       1.30185e-19       1.30185e-19
  45.4000000       1.31054e-19       1.31054e-19
  45.5000000       1.31923e-19       1.31923e-19
  45.6000000       1.32793e-19       1.32793e-19
  45.7000000       1.33662e-19       1.33662e-19
  45.8000000       1.34531e-19       1.34531e-19
  45.9000000       1.35406e-19       1.35406e-19
  46.0000000       1.36299e-19       1.36299e-19
  46.1000000       1.37195e-19       1.37195e-19
  46.2000000       1.38090e-19       1.38090e-19
  46.3000000       1.38985e-19       1.38985e-19
  46.4000000       1.39881e-19       1.39881e-19
  46.5000000       1.40776e-19       1.40776e-19
  46.6000000       1.41671e-19       1.41671e-19
  46.7000000       1.42567e-19       1.42567e-19
  46.8000000       1.43465e-19       1.43465e-19
  46.9000000       1.44396e-19       1.44396e-19
  47.0000000       1.45337e-19       1.45337e-19
  47.1000000       1.46278e-19       1.46278e-19
  47.2000000       1.47219e-19       1.47219e-19
  47.3000000       1.48161e-19       1.48161e-19
  47.4000000       1.49102e-19       1.49102e-19
  47.5000000       1.50043e-19       1.50043e-19
  47.6000000       1.50984e-19       1.50984e-19
  47.7000000       1.51925e-19       1.51925e-19
  47.8000000       1.52879e-19       1.52879e-19
  47.9000000       1.53853e-19       1.53853e-19
  48.0000000       1.54828e-19       1.54828e-19
  48.1000000       1.55802e-19       1.55802e-19
  48.2000000       1.56776e-19       1.56776e-19
  48.3000000       1.57750e-19       1.57750e-19
  48.4000000       1.58725e-19       1.58725e-19
  48.5000000       1.59699e-19       1.59699e-19
  48.6000000       1.60673e-19       1.60673e-19
  48.7000000       1.61649e-19       1.61649e-19
  48.8000000       1.62653e-19       1.62653e-19
  48.9000000       1.63669e-19       1.63669e-19
  49.0000000       1.64685e-19       1.64685e-19
  49.1000000       1.65701e-19       1.65701e-19
  49.2000000       1.66717e-19       1.66717e-19
  49.3000000       1.67733e-19       1.67733e-19
  49.4000000       1.68749e-19       1.68749e-19
  49.5000000       1.69764e-19       1.69764e-19
  49.6000000       1.70780e-19       1.70780e-19
  49.7000000       1.71800e-19       1.71800e-19
  49.8000000       1.72857e-19       1.72857e-19
  49.9000000       1.73922e-19       1.73922e-19
  50.0000000       1.74988e-19       1.74988e-19
  50.1000000       1.76053e-19       1.76053e-19
  50.2000000       1.77118e-19       1.77118e-19
  50.3000000       1.78184e-19       1.78184e-19
  50.4000000       1.79249e-19       1.79249e-19
  50.5000000       1.80315e-19       1.80315e-19
  50.6000000       1.81380e-19       1.81380e-19
  50.7000000       1.82448e-19       1.82448e-19
  50.8000000       1.83543e-19       1.83543e-19
  50.9000000       1.84646e-19       1.84646e-19
  51.0000000       1.85749e-19       1.85749e-19
  51.1000000       1.86852e-19       1.86852e-19
  51.2000000       1.87955e-19       1.87955e-19
  51.3000000       1.89058e-19       1.89058e-19
  51.4000000       1.90161e-19       1.90161e-19
  51.5000000       1.91264e-19       1.91264e-19
  51.6000000       1.92367e-19       1.92367e-19
  51.7000000       1.93470e-19       1.93470e-19
  51.8000000       1.94600e-19       1.94600e-19
  51.9000000       1.95748e-19       1.95748e-19
  52.0000000       1.96897e-19       1.96897e-19
  52.1000000       1.98045e-19       1.98045e-19
  52.2000000       1.99193e-19       1.99193e-19
  52.3000000       2.00341e-19       2.00341e-19
  52.4000000       2.01489e-19       2.01489e-19
  52.5000000       2.02637e-19       2.02637e-19
  52.6000000       2.03785e-19       2.03785e-19
  52.7000000       2.04933e-19       2.04933e-19
  52.8000000       2.06091e-19       2.06091e-19
  52.9000000       2.07279e-19       2.07279e-19
  53.0000000       2.08470e-19       2.08470e-19
  53.1000000       2.09661e-19       2.09661e-19
  53.2000000       2.10852e-19       2.10852e-19
  53.3000000       2.12043e-19       2.12043e-19
  53.4000000       2.13234e-19       2.13234e-19
  53.5000000       2.14425e-19       2.14425e-19
  53.6000000       2.15616e-19       2.15616e-19
  53.7000000       2.16807e-19       2.16807e-19
  53.8000000       2.17999e-19       2.17999e-19
  53.9000000       2.19214e-19       2.19214e-19
  54.0000000       2.20455e-19       2.20455e-19
