# Cross sections for C2
# Converted from earlier Leiden database cross sections by Alan Heays 2016-02-24
# Photodissociation source: C2 P.D. POUILLY ET AL.83 +GUESS
# Photoionisation source: C2 P.I. CF. PADIAL ET AL. ('86)
# Lines represented with gaussian of width 1.0 nm FWHM
# wavelength: (nm)
# photoabsorption:    cross section (cm2)
# photodissociation:  cross section (cm2)
# photoionisation:    cross section (cm2)
# 
# wavelength   photoabsorption photodissociation   photoionisation
  91.3000000       5.01000e-17       1.00000e-19       5.00000e-17
  91.4000000       5.01000e-17       1.00000e-19       5.00000e-17
  91.5000000       5.01000e-17       1.00000e-19       5.00000e-17
  91.6000000       5.01000e-17       1.00000e-19       5.00000e-17
  91.7000000       5.01000e-17       1.00000e-19       5.00000e-17
  91.8000000       5.01000e-17       1.00000e-19       5.00000e-17
  91.9000000       5.01000e-17       1.00000e-19       5.00000e-17
  92.0000000       5.01000e-17       1.00000e-19       5.00000e-17
  92.1000000       5.01000e-17       1.00000e-19       5.00000e-17
  92.2000000       5.01000e-17       1.00000e-19       5.00000e-17
  92.3000000       5.01000e-17       1.00000e-19       5.00000e-17
  92.4000000       5.01000e-17       1.00001e-19       5.00000e-17
  92.5000000       5.01005e-17       1.00479e-19       5.00000e-17
  92.6000000       5.01167e-17       1.16677e-19       5.00000e-17
  92.7000000       5.01405e-17       1.40515e-19       5.00000e-17
  92.8000000       5.01644e-17       1.64419e-19       5.00000e-17
  92.9000000       5.01885e-17       1.88529e-19       5.00000e-17
  93.0000000       5.02132e-17       2.13233e-19       5.00000e-17
  93.1000000       5.02396e-17       2.39573e-19       5.00000e-17
  93.2000000       5.02701e-17       2.70132e-19       5.00000e-17
  93.3000000       5.03109e-17       3.10949e-19       5.00000e-17
  93.4000000       5.03752e-17       3.75212e-19       5.00000e-17
  93.5000000       5.04898e-17       4.89812e-19       5.00000e-17
  93.6000000       5.07058e-17       7.05792e-19       5.00000e-17
  93.7000000       5.11130e-17       1.11299e-18       5.00000e-17
  93.8000000       5.18572e-17       1.85719e-18       5.00000e-17
  93.9000000       5.31547e-17       3.15473e-18       5.00000e-17
  94.0000000       5.52952e-17       5.29523e-18       5.00000e-17
  94.1000000       5.86200e-17       8.61999e-18       5.00000e-17
  94.2000000       6.34400e-17       1.34400e-17       5.00000e-17
  94.3000000       7.01093e-17       2.01093e-17       5.00000e-17
  94.4000000       7.85504e-17       2.85504e-17       5.00000e-17
  94.5000000       8.84241e-17       3.84241e-17       5.00000e-17
  94.6000000       9.90241e-17       4.90241e-17       5.00000e-17
  94.7000000       1.09293e-16       5.92930e-17       5.00000e-17
  94.8000000       1.17954e-16       6.79538e-17       5.00000e-17
  94.9000000       1.23715e-16       7.37155e-17       5.00000e-17
  95.0000000       1.25809e-16       7.58092e-17       5.00000e-17
  95.1000000       1.23875e-16       7.38755e-17       5.00000e-17
  95.2000000       1.18234e-16       6.82344e-17       5.00000e-17
  95.3000000       1.09763e-16       5.97633e-17       5.00000e-17
  95.4000000       9.96759e-17       4.96759e-17       5.00000e-17
  95.5000000       8.92421e-17       3.92421e-17       5.00000e-17
  95.6000000       7.95346e-17       2.95346e-17       5.00000e-17
  95.7000000       7.12712e-17       2.12712e-17       5.00000e-17
  95.8000000       6.47753e-17       1.47753e-17       5.00000e-17
  95.9000000       6.00342e-17       1.00342e-17       5.00000e-17
  96.0000000       5.67780e-17       6.77796e-18       5.00000e-17
  96.1000000       5.47832e-17       4.78316e-18       5.00000e-17
  96.2000000       5.36681e-17       3.66814e-18       5.00000e-17
  96.3000000       5.30811e-17       3.08109e-18       5.00000e-17
  96.4000000       5.28310e-17       2.83103e-18       5.00000e-17
  96.5000000       5.27722e-17       2.77219e-18       5.00000e-17
  96.6000000       5.28147e-17       2.81474e-18       5.00000e-17
  96.7000000       5.29075e-17       2.90754e-18       5.00000e-17
  96.8000000       5.30212e-17       3.02117e-18       5.00000e-17
  96.9000000       5.31348e-17       3.13481e-18       5.00000e-17
  97.0000000       5.32513e-17       3.25133e-18       5.00000e-17
  97.1000000       5.33695e-17       3.36948e-18       5.00000e-17
  97.2000000       5.34882e-17       3.48823e-18       5.00000e-17
  97.3000000       5.36072e-17       3.60718e-18       5.00000e-17
  97.4000000       5.37262e-17       3.72620e-18       5.00000e-17
  97.5000000       5.38452e-17       3.84524e-18       5.00000e-17
  97.6000000       5.39643e-17       3.96426e-18       5.00000e-17
  97.7000000       5.40824e-17       4.08235e-18       5.00000e-17
  97.8000000       5.42000e-17       4.20000e-18       5.00000e-17
  97.9000000       5.43176e-17       4.31765e-18       5.00000e-17
  98.0000000       5.44353e-17       4.43529e-18       5.00000e-17
  98.1000000       5.45529e-17       4.55294e-18       5.00000e-17
  98.2000000       5.46706e-17       4.67059e-18       5.00000e-17
  98.3000000       5.47882e-17       4.78824e-18       5.00000e-17
  98.4000000       5.49059e-17       4.90588e-18       5.00000e-17
  98.5000000       5.50393e-17       5.03925e-18       5.00000e-17
  98.6000000       5.52182e-17       5.21818e-18       5.00000e-17
  98.7000000       5.54000e-17       5.40000e-18       5.00000e-17
  98.8000000       5.55818e-17       5.58182e-18       5.00000e-17
  98.9000000       5.57636e-17       5.76364e-18       5.00000e-17
  99.0000000       5.59439e-17       5.94388e-18       5.00000e-17
  99.1000000       5.60722e-17       6.07216e-18       5.00000e-17
  99.2000000       5.61753e-17       6.17526e-18       5.00000e-17
  99.3000000       5.62784e-17       6.27835e-18       5.00000e-17
  99.4000000       5.63814e-17       6.38144e-18       5.00000e-17
  99.5000000       5.64845e-17       6.48454e-18       5.00000e-17
  99.6000000       5.65876e-17       6.58763e-18       5.00000e-17
  99.7000000       5.66907e-17       6.69072e-18       5.00000e-17
  99.8000000       5.67938e-17       6.79381e-18       5.00000e-17
  99.9000000       5.68969e-17       6.89691e-18       5.00000e-17
 100.0000000       5.69925e-17       6.99248e-18       5.00000e-17
 100.1000000       5.70429e-17       7.04294e-18       5.00000e-17
 100.2000000       5.70859e-17       7.08589e-18       5.00000e-17
 100.3000000       5.71288e-17       7.12883e-18       5.00000e-17
 100.4000000       5.71718e-17       7.17178e-18       5.00000e-17
 100.5000000       5.72147e-17       7.21472e-18       5.00000e-17
 100.6000000       5.72577e-17       7.25767e-18       5.00000e-17
 100.7000000       5.73006e-17       7.30061e-18       5.00000e-17
 100.8000000       5.73436e-17       7.34356e-18       5.00000e-17
 100.9000000       5.73865e-17       7.38650e-18       5.00000e-17
 101.0000000       5.74294e-17       7.42945e-18       5.00000e-17
 101.1000000       5.74724e-17       7.47239e-18       5.00000e-17
 101.2000000       5.75153e-17       7.51534e-18       5.00000e-17
 101.3000000       5.75583e-17       7.55828e-18       5.00000e-17
 101.4000000       5.76012e-17       7.60123e-18       5.00000e-17
 101.5000000       5.76442e-17       7.64417e-18       5.00000e-17
 101.6000000       5.76854e-17       7.68538e-18       5.00000e-17
 101.7000000       5.76694e-17       7.66937e-18       5.00000e-17
 101.8000000       5.76256e-17       7.62562e-18       5.00000e-17
 101.9000000       5.75819e-17       7.58187e-18       5.00000e-17
 102.0000000       5.12881e-17       7.53812e-18       4.37500e-17
 102.1000000       1.37444e-17       7.49437e-18       6.25000e-18
 102.2000000       7.45062e-18       7.45062e-18       0.00000e+00
 102.3000000       7.40687e-18       7.40687e-18       0.00000e+00
 102.4000000       7.36312e-18       7.36312e-18       0.00000e+00
 102.5000000       7.31937e-18       7.31937e-18       0.00000e+00
 102.6000000       7.27562e-18       7.27562e-18       0.00000e+00
 102.7000000       7.23187e-18       7.23187e-18       0.00000e+00
 102.8000000       7.18812e-18       7.18812e-18       0.00000e+00
 102.9000000       7.14437e-18       7.14437e-18       0.00000e+00
 103.0000000       7.10062e-18       7.10062e-18       0.00000e+00
 103.1000000       7.05687e-18       7.05687e-18       0.00000e+00
 103.2000000       7.01170e-18       7.01170e-18       0.00000e+00
 103.3000000       6.91954e-18       6.91954e-18       0.00000e+00
 103.4000000       6.80460e-18       6.80460e-18       0.00000e+00
 103.5000000       6.68966e-18       6.68966e-18       0.00000e+00
 103.6000000       6.57471e-18       6.57471e-18       0.00000e+00
 103.7000000       6.45977e-18       6.45977e-18       0.00000e+00
 103.8000000       6.34483e-18       6.34483e-18       0.00000e+00
 103.9000000       6.22989e-18       6.22989e-18       0.00000e+00
 104.0000000       6.11494e-18       6.11494e-18       0.00000e+00
 104.1000000       5.99421e-18       5.99421e-18       0.00000e+00
 104.2000000       5.83871e-18       5.83871e-18       0.00000e+00
 104.3000000       5.67742e-18       5.67742e-18       0.00000e+00
 104.4000000       5.51613e-18       5.51613e-18       0.00000e+00
 104.5000000       5.35484e-18       5.35484e-18       0.00000e+00
 104.6000000       5.19355e-18       5.19355e-18       0.00000e+00
 104.7000000       5.03389e-18       5.03389e-18       0.00000e+00
 104.8000000       4.90000e-18       4.90000e-18       0.00000e+00
 104.9000000       4.77500e-18       4.77500e-18       0.00000e+00
 105.0000000       4.65000e-18       4.65000e-18       0.00000e+00
 105.1000000       4.52500e-18       4.52500e-18       0.00000e+00
 105.2000000       4.40000e-18       4.40000e-18       0.00000e+00
 105.3000000       4.27500e-18       4.27500e-18       0.00000e+00
 105.4000000       4.15000e-18       4.15000e-18       0.00000e+00
 105.5000000       4.02507e-18       4.02507e-18       0.00000e+00
 105.6000000       3.90123e-18       3.90123e-18       0.00000e+00
 105.7000000       3.77778e-18       3.77778e-18       0.00000e+00
 105.8000000       3.65432e-18       3.65432e-18       0.00000e+00
 105.9000000       3.53086e-18       3.53086e-18       0.00000e+00
 106.0000000       3.40741e-18       3.40741e-18       0.00000e+00
 106.1000000       3.28395e-18       3.28395e-18       0.00000e+00
 106.2000000       3.16049e-18       3.16049e-18       0.00000e+00
 106.3000000       3.03516e-18       3.03516e-18       0.00000e+00
 106.4000000       2.84783e-18       2.84783e-18       0.00000e+00
 106.5000000       2.63043e-18       2.63043e-18       0.00000e+00
 106.6000000       2.41304e-18       2.41304e-18       0.00000e+00
 106.7000000       2.19565e-18       2.19565e-18       0.00000e+00
 106.8000000       1.98525e-18       1.98525e-18       0.00000e+00
 106.9000000       1.80357e-18       1.80357e-18       0.00000e+00
 107.0000000       1.62500e-18       1.62500e-18       0.00000e+00
 107.1000000       1.44643e-18       1.44643e-18       0.00000e+00
 107.2000000       1.26786e-18       1.26786e-18       0.00000e+00
 107.3000000       1.08929e-18       1.08929e-18       0.00000e+00
 107.4000000       9.80176e-19       9.80176e-19       0.00000e+00
 107.5000000       9.40529e-19       9.40529e-19       0.00000e+00
 107.6000000       9.00881e-19       9.00881e-19       0.00000e+00
 107.7000000       8.61233e-19       8.61233e-19       0.00000e+00
 107.8000000       8.21586e-19       8.21586e-19       0.00000e+00
 107.9000000       7.81938e-19       7.81938e-19       0.00000e+00
 108.0000000       7.42291e-19       7.42291e-19       0.00000e+00
 108.1000000       7.02643e-19       7.02643e-19       0.00000e+00
 108.2000000       6.62996e-19       6.62996e-19       0.00000e+00
 108.3000000       6.23348e-19       6.23348e-19       0.00000e+00
 108.4000000       5.83700e-19       5.83700e-19       0.00000e+00
 108.5000000       5.44053e-19       5.44053e-19       0.00000e+00
 108.6000000       5.04405e-19       5.04405e-19       0.00000e+00
 108.7000000       4.64758e-19       4.64758e-19       0.00000e+00
 108.8000000       4.25110e-19       4.25110e-19       0.00000e+00
 108.9000000       3.85463e-19       3.85463e-19       0.00000e+00
 109.0000000       3.45815e-19       3.45815e-19       0.00000e+00
 109.1000000       3.06167e-19       3.06167e-19       0.00000e+00
 109.2000000       2.66520e-19       2.66520e-19       0.00000e+00
 109.3000000       2.26872e-19       2.26872e-19       0.00000e+00
 109.4000000       1.87225e-19       1.87225e-19       0.00000e+00
 109.5000000       1.47577e-19       1.47577e-19       0.00000e+00
 109.6000000       1.10766e-19       1.10766e-19       0.00000e+00
 109.7000000       1.18713e-19       1.18713e-19       0.00000e+00
 109.8000000       1.42105e-19       1.42105e-19       0.00000e+00
 109.9000000       1.65497e-19       1.65497e-19       0.00000e+00
 110.0000000       1.88889e-19       1.88889e-19       0.00000e+00
 110.1000000       2.12281e-19       2.12281e-19       0.00000e+00
 110.2000000       2.35673e-19       2.35673e-19       0.00000e+00
 110.3000000       2.59064e-19       2.59064e-19       0.00000e+00
 110.4000000       2.82456e-19       2.82456e-19       0.00000e+00
 110.5000000       3.05848e-19       3.05848e-19       0.00000e+00
 110.6000000       3.29240e-19       3.29240e-19       0.00000e+00
 110.7000000       3.52632e-19       3.52632e-19       0.00000e+00
 110.8000000       3.76023e-19       3.76023e-19       0.00000e+00
 110.9000000       3.99415e-19       3.99415e-19       0.00000e+00
 111.0000000       4.22807e-19       4.22807e-19       0.00000e+00
 111.1000000       4.46199e-19       4.46199e-19       0.00000e+00
 111.2000000       4.69591e-19       4.69591e-19       0.00000e+00
 111.3000000       4.92803e-19       4.92803e-19       0.00000e+00
 111.4000000       5.10086e-19       5.10086e-19       0.00000e+00
 111.5000000       5.24496e-19       5.24496e-19       0.00000e+00
 111.6000000       5.38905e-19       5.38905e-19       0.00000e+00
 111.7000000       5.53314e-19       5.53314e-19       0.00000e+00
 111.8000000       5.67723e-19       5.67723e-19       0.00000e+00
 111.9000000       5.82133e-19       5.82133e-19       0.00000e+00
 112.0000000       5.96542e-19       5.96542e-19       0.00000e+00
 112.1000000       6.10951e-19       6.10951e-19       0.00000e+00
 112.2000000       6.25360e-19       6.25360e-19       0.00000e+00
 112.3000000       6.39769e-19       6.39769e-19       0.00000e+00
 112.4000000       6.54179e-19       6.54179e-19       0.00000e+00
 112.5000000       6.68588e-19       6.68588e-19       0.00000e+00
 112.6000000       6.82997e-19       6.82997e-19       0.00000e+00
 112.7000000       6.97406e-19       6.97406e-19       0.00000e+00
 112.8000000       7.11816e-19       7.11816e-19       0.00000e+00
 112.9000000       7.26225e-19       7.26225e-19       0.00000e+00
 113.0000000       7.40634e-19       7.40634e-19       0.00000e+00
 113.1000000       7.55043e-19       7.55043e-19       0.00000e+00
 113.2000000       7.69452e-19       7.69452e-19       0.00000e+00
 113.3000000       7.83862e-19       7.83862e-19       0.00000e+00
 113.4000000       7.98271e-19       7.98271e-19       0.00000e+00
 113.5000000       8.12680e-19       8.12680e-19       0.00000e+00
 113.6000000       8.27089e-19       8.27089e-19       0.00000e+00
 113.7000000       8.41499e-19       8.41499e-19       0.00000e+00
 113.8000000       8.55908e-19       8.55908e-19       0.00000e+00
 113.9000000       8.70317e-19       8.70317e-19       0.00000e+00
 114.0000000       8.84726e-19       8.84726e-19       0.00000e+00
 114.1000000       8.99135e-19       8.99135e-19       0.00000e+00
 114.2000000       9.13545e-19       9.13545e-19       0.00000e+00
 114.3000000       9.27954e-19       9.27954e-19       0.00000e+00
 114.4000000       9.42363e-19       9.42363e-19       0.00000e+00
 114.5000000       9.56772e-19       9.56772e-19       0.00000e+00
 114.6000000       9.71182e-19       9.71182e-19       0.00000e+00
 114.7000000       9.85591e-19       9.85591e-19       0.00000e+00
 114.8000000       1.00404e-18       1.00404e-18       0.00000e+00
 114.9000000       1.04673e-18       1.04673e-18       0.00000e+00
 115.0000000       1.09346e-18       1.09346e-18       0.00000e+00
 115.1000000       1.14019e-18       1.14019e-18       0.00000e+00
 115.2000000       1.18692e-18       1.18692e-18       0.00000e+00
 115.3000000       1.23364e-18       1.23364e-18       0.00000e+00
 115.4000000       1.28037e-18       1.28037e-18       0.00000e+00
 115.5000000       1.32710e-18       1.32710e-18       0.00000e+00
 115.6000000       1.37383e-18       1.37383e-18       0.00000e+00
 115.7000000       1.42057e-18       1.42057e-18       0.00000e+00
 115.8000000       1.46731e-18       1.46731e-18       0.00000e+00
 115.9000000       1.53549e-18       1.53549e-18       0.00000e+00
 116.0000000       1.64793e-18       1.64793e-18       0.00000e+00
 116.1000000       1.76196e-18       1.76196e-18       0.00000e+00
 116.2000000       1.87663e-18       1.87663e-18       0.00000e+00
 116.3000000       2.00190e-18       2.00190e-18       0.00000e+00
 116.4000000       2.21498e-18       2.21498e-18       0.00000e+00
 116.5000000       2.46286e-18       2.46286e-18       0.00000e+00
 116.6000000       2.96724e-18       2.96724e-18       0.00000e+00
 116.7000000       3.61746e-18       3.61746e-18       0.00000e+00
 116.8000000       4.31913e-18       4.31913e-18       0.00000e+00
 116.9000000       5.10292e-18       5.10292e-18       0.00000e+00
 117.0000000       5.44962e-18       5.44962e-18       0.00000e+00
 117.1000000       4.81446e-18       4.81446e-18       0.00000e+00
 117.2000000       4.55363e-18       4.55363e-18       0.00000e+00
 117.3000000       5.31938e-18       5.31938e-18       0.00000e+00
 117.4000000       6.43363e-18       6.43363e-18       0.00000e+00
 117.5000000       7.76992e-18       7.76992e-18       0.00000e+00
 117.6000000       9.21788e-18       9.21788e-18       0.00000e+00
 117.7000000       1.06126e-17       1.06126e-17       0.00000e+00
 117.8000000       1.17588e-17       1.17588e-17       0.00000e+00
 117.9000000       1.24698e-17       1.24698e-17       0.00000e+00
 118.0000000       1.26187e-17       1.26187e-17       0.00000e+00
 118.1000000       1.21876e-17       1.21876e-17       0.00000e+00
 118.2000000       1.12696e-17       1.12696e-17       0.00000e+00
 118.3000000       9.94042e-18       9.94042e-18       0.00000e+00
 118.4000000       8.36278e-18       8.36278e-18       0.00000e+00
 118.5000000       6.73187e-18       6.73187e-18       0.00000e+00
 118.6000000       5.21263e-18       5.21263e-18       0.00000e+00
 118.7000000       3.91544e-18       3.91544e-18       0.00000e+00
 118.8000000       2.88997e-18       2.88997e-18       0.00000e+00
 118.9000000       2.13432e-18       2.13432e-18       0.00000e+00
 119.0000000       1.61239e-18       1.61239e-18       0.00000e+00
 119.1000000       1.27254e-18       1.27254e-18       0.00000e+00
 119.2000000       1.06229e-18       1.06229e-18       0.00000e+00
 119.3000000       9.37124e-19       9.37124e-19       0.00000e+00
 119.4000000       8.63769e-19       8.63769e-19       0.00000e+00
 119.5000000       8.19814e-19       8.19814e-19       0.00000e+00
 119.6000000       7.91445e-19       7.91445e-19       0.00000e+00
 119.7000000       7.70817e-19       7.70817e-19       0.00000e+00
 119.8000000       7.53792e-19       7.53792e-19       0.00000e+00
 119.9000000       7.38345e-19       7.38345e-19       0.00000e+00
 120.0000000       7.23547e-19       7.23547e-19       0.00000e+00
 120.1000000       7.09000e-19       7.09000e-19       0.00000e+00
 120.2000000       6.94545e-19       6.94545e-19       0.00000e+00
 120.3000000       6.80121e-19       6.80121e-19       0.00000e+00
