# Cross sections for C2H4
# Converted from earlier Leiden database cross sections by Alan Heays 2016-02-24
# Photodissociation source: C2H4 P.D. CF. ZELIKOFF AND WATANABE ('53)
# Photoionisation source: C2H4 P.I. CF. HUDSON ('71)
# Lines represented with gaussian of width 1.0 nm FWHM
# wavelength: (nm)
# photoabsorption:    cross section (cm2)
# photodissociation:  cross section (cm2)
# photoionisation:    cross section (cm2)
# 
# wavelength   photoabsorption photodissociation   photoionisation
  91.3000000       5.20000e-17       2.00000e-17       3.20000e-17
  91.4000000       5.20000e-17       2.00000e-17       3.20000e-17
  91.5000000       5.20000e-17       2.00000e-17       3.20000e-17
  91.6000000       5.20000e-17       2.00000e-17       3.20000e-17
  91.7000000       5.20000e-17       2.00000e-17       3.20000e-17
  91.8000000       5.20000e-17       2.00000e-17       3.20000e-17
  91.9000000       5.20000e-17       2.00000e-17       3.20000e-17
  92.0000000       5.19937e-17       2.00000e-17       3.19937e-17
  92.1000000       5.19500e-17       2.00000e-17       3.19500e-17
  92.2000000       5.19000e-17       2.00000e-17       3.19000e-17
  92.3000000       5.18500e-17       2.00000e-17       3.18500e-17
  92.4000000       5.18000e-17       2.00000e-17       3.18000e-17
  92.5000000       5.17500e-17       2.00000e-17       3.17500e-17
  92.6000000       5.17000e-17       2.00000e-17       3.17000e-17
  92.7000000       5.16500e-17       2.00000e-17       3.16500e-17
  92.8000000       5.16000e-17       2.00000e-17       3.16000e-17
  92.9000000       5.15500e-17       2.00000e-17       3.15500e-17
  93.0000000       5.15000e-17       2.00000e-17       3.15000e-17
  93.1000000       5.14500e-17       2.00000e-17       3.14500e-17
  93.2000000       5.14000e-17       2.00000e-17       3.14000e-17
  93.3000000       5.13500e-17       2.00000e-17       3.13500e-17
  93.4000000       5.13000e-17       2.00000e-17       3.13000e-17
  93.5000000       5.12500e-17       2.00000e-17       3.12500e-17
  93.6000000       5.12000e-17       2.00000e-17       3.12000e-17
  93.7000000       5.11500e-17       2.00000e-17       3.11500e-17
  93.8000000       5.11000e-17       2.00000e-17       3.11000e-17
  93.9000000       5.10500e-17       2.00000e-17       3.10500e-17
  94.0000000       5.10062e-17       2.00000e-17       3.10062e-17
  94.1000000       5.10000e-17       2.00000e-17       3.10000e-17
  94.2000000       5.10000e-17       2.00000e-17       3.10000e-17
  94.3000000       5.10000e-17       2.00000e-17       3.10000e-17
  94.4000000       5.10000e-17       2.00000e-17       3.10000e-17
  94.5000000       5.10000e-17       2.00000e-17       3.10000e-17
  94.6000000       5.10000e-17       2.00000e-17       3.10000e-17
  94.7000000       5.10000e-17       2.00000e-17       3.10000e-17
  94.8000000       5.10000e-17       2.00000e-17       3.10000e-17
  94.9000000       5.10000e-17       2.00000e-17       3.10000e-17
  95.0000000       5.10250e-17       2.00250e-17       3.10000e-17
  95.1000000       5.12000e-17       2.02000e-17       3.10000e-17
  95.2000000       5.14000e-17       2.04000e-17       3.10000e-17
  95.3000000       5.16000e-17       2.06000e-17       3.10000e-17
  95.4000000       5.18000e-17       2.08000e-17       3.10000e-17
  95.5000000       5.20000e-17       2.10000e-17       3.10000e-17
  95.6000000       5.22000e-17       2.12000e-17       3.10000e-17
  95.7000000       5.24000e-17       2.14000e-17       3.10000e-17
  95.8000000       5.26000e-17       2.16000e-17       3.10000e-17
  95.9000000       5.28000e-17       2.18000e-17       3.10000e-17
  96.0000000       5.29688e-17       2.20000e-17       3.09687e-17
  96.1000000       5.29500e-17       2.22000e-17       3.07500e-17
  96.2000000       5.29000e-17       2.24000e-17       3.05000e-17
  96.3000000       5.28500e-17       2.26000e-17       3.02500e-17
  96.4000000       5.28000e-17       2.28000e-17       3.00000e-17
  96.5000000       5.27500e-17       2.30000e-17       2.97500e-17
  96.6000000       5.27000e-17       2.32000e-17       2.95000e-17
  96.7000000       5.26500e-17       2.34000e-17       2.92500e-17
  96.8000000       5.26000e-17       2.36000e-17       2.90000e-17
  96.9000000       5.25500e-17       2.38000e-17       2.87500e-17
  97.0000000       5.25000e-17       2.40000e-17       2.85000e-17
  97.1000000       5.24500e-17       2.42000e-17       2.82500e-17
  97.2000000       5.24000e-17       2.44000e-17       2.80000e-17
  97.3000000       5.23500e-17       2.46000e-17       2.77500e-17
  97.4000000       5.23000e-17       2.48000e-17       2.75000e-17
  97.5000000       5.22500e-17       2.50000e-17       2.72500e-17
  97.6000000       5.22000e-17       2.52000e-17       2.70000e-17
  97.7000000       5.21500e-17       2.54000e-17       2.67500e-17
  97.8000000       5.21001e-17       2.56001e-17       2.65000e-17
  97.9000000       5.20502e-17       2.58002e-17       2.62500e-17
  98.0000000       5.19820e-17       2.60007e-17       2.59812e-17
  98.1000000       5.18021e-17       2.62021e-17       2.56000e-17
  98.2000000       5.16058e-17       2.64058e-17       2.52000e-17
  98.3000000       5.14152e-17       2.66152e-17       2.48000e-17
  98.4000000       5.12374e-17       2.68374e-17       2.44000e-17
  98.5000000       5.10874e-17       2.70874e-17       2.40000e-17
  98.6000000       5.09931e-17       2.73931e-17       2.36000e-17
  98.7000000       5.10039e-17       2.78039e-17       2.32000e-17
  98.8000000       5.12001e-17       2.84001e-17       2.28000e-17
  98.9000000       5.17007e-17       2.93007e-17       2.24000e-17
  99.0000000       5.26649e-17       3.06649e-17       2.20000e-17
  99.1000000       5.42804e-17       3.26804e-17       2.16000e-17
  99.2000000       5.67320e-17       3.55320e-17       2.12000e-17
  99.3000000       6.01488e-17       3.93488e-17       2.08000e-17
  99.4000000       6.45376e-17       4.41376e-17       2.04000e-17
  99.5000000       6.97207e-17       4.97207e-17       2.00000e-17
  99.6000000       7.53033e-17       5.57033e-17       1.96000e-17
  99.7000000       8.06954e-17       6.14954e-17       1.92000e-17
  99.8000000       8.51985e-17       6.63985e-17       1.88000e-17
  99.9000000       8.81451e-17       6.97451e-17       1.84000e-17
 100.0000000       8.90152e-17       7.10027e-17       1.80125e-17
 100.1000000       8.74451e-17       6.97451e-17       1.77000e-17
 100.2000000       8.37985e-17       6.63985e-17       1.74000e-17
 100.3000000       7.85954e-17       6.14954e-17       1.71000e-17
 100.4000000       7.25033e-17       5.57033e-17       1.68000e-17
 100.5000000       6.62207e-17       4.97207e-17       1.65000e-17
 100.6000000       6.03376e-17       4.41376e-17       1.62000e-17
 100.7000000       5.52488e-17       3.93488e-17       1.59000e-17
 100.8000000       5.11320e-17       3.55320e-17       1.56000e-17
 100.9000000       4.79804e-17       3.26804e-17       1.53000e-17
 101.0000000       4.56649e-17       3.06649e-17       1.50000e-17
 101.1000000       4.40007e-17       2.93007e-17       1.47000e-17
 101.2000000       4.28001e-17       2.84001e-17       1.44000e-17
 101.3000000       4.19039e-17       2.78039e-17       1.41000e-17
 101.4000000       4.11931e-17       2.73931e-17       1.38000e-17
 101.5000000       4.05874e-17       2.70874e-17       1.35000e-17
 101.6000000       4.00374e-17       2.68374e-17       1.32000e-17
 101.7000000       3.95152e-17       2.66152e-17       1.29000e-17
 101.8000000       3.90058e-17       2.64058e-17       1.26000e-17
 101.9000000       3.85021e-17       2.62021e-17       1.23000e-17
 102.0000000       3.80320e-17       2.60007e-17       1.20312e-17
 102.1000000       3.77502e-17       2.58002e-17       1.19500e-17
 102.2000000       3.75001e-17       2.56001e-17       1.19000e-17
 102.3000000       3.72500e-17       2.54000e-17       1.18500e-17
 102.4000000       3.70000e-17       2.52000e-17       1.18000e-17
 102.5000000       3.67500e-17       2.50000e-17       1.17500e-17
 102.6000000       3.65000e-17       2.48000e-17       1.17000e-17
 102.7000000       3.62500e-17       2.46000e-17       1.16500e-17
 102.8000000       3.60000e-17       2.44000e-17       1.16000e-17
 102.9000000       3.57500e-17       2.42000e-17       1.15500e-17
 103.0000000       3.55000e-17       2.40000e-17       1.15000e-17
 103.1000000       3.52500e-17       2.38000e-17       1.14500e-17
 103.2000000       3.50000e-17       2.36000e-17       1.14000e-17
 103.3000000       3.47500e-17       2.34000e-17       1.13500e-17
 103.4000000       3.45000e-17       2.32000e-17       1.13000e-17
 103.5000000       3.42500e-17       2.30000e-17       1.12500e-17
 103.6000000       3.40000e-17       2.28000e-17       1.12000e-17
 103.7000000       3.37500e-17       2.26000e-17       1.11500e-17
 103.8000000       3.35000e-17       2.24000e-17       1.11000e-17
 103.9000000       3.32500e-17       2.22000e-17       1.10500e-17
 104.0000000       3.30000e-17       2.20000e-17       1.10000e-17
 104.1000000       3.27500e-17       2.18000e-17       1.09500e-17
 104.2000000       3.25000e-17       2.16000e-17       1.09000e-17
 104.3000000       3.22500e-17       2.14000e-17       1.08500e-17
 104.4000000       3.20000e-17       2.12000e-17       1.08000e-17
 104.5000000       3.17500e-17       2.10000e-17       1.07500e-17
 104.6000000       3.15000e-17       2.08000e-17       1.07000e-17
 104.7000000       3.12500e-17       2.06000e-17       1.06500e-17
 104.8000000       3.10000e-17       2.04000e-17       1.06000e-17
 104.9000000       3.07500e-17       2.02000e-17       1.05500e-17
 105.0000000       3.05000e-17       2.00000e-17       1.05000e-17
 105.1000000       3.02500e-17       1.98000e-17       1.04500e-17
 105.2000000       3.00000e-17       1.96000e-17       1.04000e-17
 105.3000000       2.97500e-17       1.94000e-17       1.03500e-17
 105.4000000       2.95000e-17       1.92000e-17       1.03000e-17
 105.5000000       2.92500e-17       1.90000e-17       1.02500e-17
 105.6000000       2.90000e-17       1.88000e-17       1.02000e-17
 105.7000000       2.87500e-17       1.86000e-17       1.01500e-17
 105.8000000       2.85000e-17       1.84000e-17       1.01000e-17
 105.9000000       2.82500e-17       1.82000e-17       1.00500e-17
 106.0000000       2.80000e-17       1.80000e-17       1.00000e-17
 106.1000000       2.77500e-17       1.78000e-17       9.95000e-18
 106.2000000       2.75000e-17       1.76000e-17       9.90000e-18
 106.3000000       2.72500e-17       1.74000e-17       9.85000e-18
 106.4000000       2.70000e-17       1.72000e-17       9.80000e-18
 106.5000000       2.67500e-17       1.70000e-17       9.75000e-18
 106.6000000       2.65000e-17       1.68000e-17       9.70000e-18
 106.7000000       2.62500e-17       1.66000e-17       9.65000e-18
 106.8000000       2.60000e-17       1.64000e-17       9.60000e-18
 106.9000000       2.57500e-17       1.62000e-17       9.55000e-18
 107.0000000       2.55000e-17       1.60000e-17       9.50000e-18
 107.1000000       2.52500e-17       1.58000e-17       9.45000e-18
 107.2000000       2.50000e-17       1.56000e-17       9.40000e-18
 107.3000000       2.47500e-17       1.54000e-17       9.35000e-18
 107.4000000       2.45000e-17       1.52000e-17       9.30000e-18
 107.5000000       2.42500e-17       1.50000e-17       9.25000e-18
 107.6000000       2.40000e-17       1.48000e-17       9.20000e-18
 107.7000000       2.37500e-17       1.46000e-17       9.15000e-18
 107.8000000       2.35000e-17       1.44000e-17       9.10000e-18
 107.9000000       2.32500e-17       1.42000e-17       9.05000e-18
 108.0000000       2.30062e-17       1.40000e-17       9.00625e-18
 108.1000000       2.28000e-17       1.38000e-17       9.00000e-18
 108.2000000       2.26000e-17       1.36000e-17       9.00000e-18
 108.3000000       2.24000e-17       1.34000e-17       9.00000e-18
 108.4000000       2.22000e-17       1.32000e-17       9.00000e-18
 108.5000000       2.20000e-17       1.30000e-17       9.00000e-18
 108.6000000       2.18000e-17       1.28000e-17       9.00000e-18
 108.7000000       2.16000e-17       1.26000e-17       9.00000e-18
 108.8000000       2.14000e-17       1.24000e-17       9.00000e-18
 108.9000000       2.12000e-17       1.22000e-17       9.00000e-18
 109.0000000       2.10000e-17       1.20000e-17       9.00000e-18
 109.1000000       2.08000e-17       1.18000e-17       9.00000e-18
 109.2000000       2.06000e-17       1.16000e-17       9.00000e-18
 109.3000000       2.04000e-17       1.14000e-17       9.00000e-18
 109.4000000       2.02000e-17       1.12000e-17       9.00000e-18
 109.5000000       2.00000e-17       1.10000e-17       9.00000e-18
 109.6000000       1.98000e-17       1.08000e-17       9.00000e-18
 109.7000000       1.96000e-17       1.06000e-17       9.00000e-18
 109.8000000       1.94000e-17       1.04000e-17       9.00000e-18
 109.9000000       1.92000e-17       1.02000e-17       9.00000e-18
 110.0000000       1.90250e-17       1.00250e-17       9.00000e-18
 110.1000000       1.90000e-17       1.00000e-17       9.00000e-18
 110.2000000       1.90000e-17       1.00000e-17       9.00000e-18
 110.3000000       1.90000e-17       1.00000e-17       9.00000e-18
 110.4000000       1.90000e-17       1.00000e-17       9.00000e-18
 110.5000000       1.90000e-17       1.00000e-17       9.00000e-18
 110.6000000       1.90000e-17       1.00000e-17       9.00000e-18
 110.7000000       1.90000e-17       1.00000e-17       9.00000e-18
 110.8000000       1.90000e-17       1.00000e-17       9.00000e-18
 110.9000000       1.90000e-17       1.00000e-17       9.00000e-18
 111.0000000       1.90000e-17       1.00000e-17       9.00000e-18
 111.1000000       1.90000e-17       1.00000e-17       9.00000e-18
 111.2000000       1.90000e-17       1.00000e-17       9.00000e-18
 111.3000000       1.90000e-17       1.00000e-17       9.00000e-18
 111.4000000       1.90000e-17       1.00000e-17       9.00000e-18
 111.5000000       1.90000e-17       1.00000e-17       9.00000e-18
 111.6000000       1.90000e-17       1.00000e-17       9.00000e-18
 111.7000000       1.90000e-17       1.00000e-17       9.00000e-18
 111.8000000       1.90000e-17       1.00000e-17       9.00000e-18
 111.9000000       1.90000e-17       1.00000e-17       9.00000e-18
 112.0000000       1.90000e-17       1.00000e-17       9.00000e-18
 112.1000000       1.90000e-17       1.00000e-17       9.00000e-18
 112.2000000       1.90000e-17       1.00000e-17       9.00000e-18
 112.3000000       1.90000e-17       1.00000e-17       9.00000e-18
 112.4000000       1.90000e-17       1.00000e-17       9.00000e-18
 112.5000000       1.90000e-17       1.00000e-17       9.00000e-18
 112.6000000       1.90000e-17       1.00000e-17       9.00000e-18
 112.7000000       1.90000e-17       1.00000e-17       9.00000e-18
 112.8000000       1.90000e-17       1.00000e-17       9.00000e-18
 112.9000000       1.90000e-17       1.00000e-17       9.00000e-18
 113.0000000       1.90000e-17       1.00000e-17       9.00000e-18
 113.1000000       1.90000e-17       1.00000e-17       9.00000e-18
 113.2000000       1.90000e-17       1.00000e-17       9.00000e-18
 113.3000000       1.90000e-17       1.00000e-17       9.00000e-18
 113.4000000       1.90000e-17       1.00000e-17       9.00000e-18
 113.5000000       1.90000e-17       1.00000e-17       9.00000e-18
 113.6000000       1.90000e-17       1.00000e-17       9.00000e-18
 113.7000000       1.90000e-17       1.00000e-17       9.00000e-18
 113.8000000       1.90000e-17       1.00000e-17       9.00000e-18
 113.9000000       1.90000e-17       1.00000e-17       9.00000e-18
 114.0000000       1.89812e-17       1.00000e-17       8.98125e-18
 114.1000000       1.88500e-17       1.00000e-17       8.85000e-18
 114.2000000       1.87000e-17       1.00000e-17       8.70000e-18
 114.3000000       1.85500e-17       1.00000e-17       8.55000e-18
 114.4000000       1.84000e-17       1.00000e-17       8.40000e-18
 114.5000000       1.82500e-17       1.00000e-17       8.25000e-18
 114.6000000       1.81000e-17       1.00000e-17       8.10000e-18
 114.7000000       1.79500e-17       1.00000e-17       7.95000e-18
 114.8000000       1.78000e-17       1.00000e-17       7.80000e-18
 114.9000000       1.76500e-17       1.00000e-17       7.65000e-18
 115.0000000       1.75300e-17       1.00300e-17       7.50000e-18
 115.1000000       1.75900e-17       1.02400e-17       7.35000e-18
 115.2000000       1.76800e-17       1.04800e-17       7.20000e-18
 115.3000000       1.77700e-17       1.07200e-17       7.05000e-18
 115.4000000       1.78600e-17       1.09600e-17       6.90000e-18
 115.5000000       1.79500e-17       1.12000e-17       6.75000e-18
 115.6000000       1.80400e-17       1.14400e-17       6.60000e-18
 115.7000000       1.81300e-17       1.16800e-17       6.45000e-18
 115.8000000       1.82200e-17       1.19200e-17       6.30000e-18
 115.9000000       1.83100e-17       1.21600e-17       6.15000e-18
 116.0000000       1.83875e-17       1.24000e-17       5.98750e-18
 116.1000000       1.83900e-17       1.26400e-17       5.75000e-18
 116.2000000       1.83800e-17       1.28800e-17       5.50000e-18
 116.3000000       1.83700e-17       1.31200e-17       5.25000e-18
 116.4000000       1.83600e-17       1.33600e-17       5.00000e-18
 116.5000000       1.83500e-17       1.36000e-17       4.75000e-18
 116.6000000       1.83400e-17       1.38400e-17       4.50000e-18
 116.7000000       1.83300e-17       1.40800e-17       4.25000e-18
 116.8000000       1.83200e-17       1.43200e-17       4.00000e-18
 116.9000000       1.83100e-17       1.45600e-17       3.75000e-18
 117.0000000       1.83000e-17       1.48000e-17       3.50000e-18
 117.1000000       1.82900e-17       1.50400e-17       3.25000e-18
 117.2000000       1.82800e-17       1.52800e-17       3.00000e-18
 117.3000000       1.82700e-17       1.55200e-17       2.75000e-18
 117.4000000       1.82600e-17       1.57600e-17       2.50000e-18
 117.5000000       1.82500e-17       1.60000e-17       2.25000e-18
 117.6000000       1.82400e-17       1.62400e-17       2.00000e-18
 117.7000000       1.82300e-17       1.64800e-17       1.75000e-18
 117.8000000       1.82200e-17       1.67200e-17       1.50000e-18
 117.9000000       1.82100e-17       1.69600e-17       1.25000e-18
 118.0000000       1.81062e-17       1.72000e-17       9.06250e-19
 118.1000000       1.75650e-17       1.74400e-17       1.25000e-19
 118.2000000       1.76800e-17       1.76800e-17       0.00000e+00
 118.3000000       1.79200e-17       1.79200e-17       0.00000e+00
 118.4000000       1.81600e-17       1.81600e-17       0.00000e+00
 118.5000000       1.84000e-17       1.84000e-17       0.00000e+00
 118.6000000       1.86400e-17       1.86400e-17       0.00000e+00
 118.7000000       1.88800e-17       1.88800e-17       0.00000e+00
 118.8000000       1.91200e-17       1.91200e-17       0.00000e+00
 118.9000000       1.93600e-17       1.93600e-17       0.00000e+00
 119.0000000       1.96000e-17       1.96000e-17       0.00000e+00
 119.1000000       1.98400e-17       1.98400e-17       0.00000e+00
 119.2000000       2.00800e-17       2.00800e-17       0.00000e+00
 119.3000000       2.03200e-17       2.03200e-17       0.00000e+00
 119.4000000       2.05600e-17       2.05600e-17       0.00000e+00
 119.5000000       2.08000e-17       2.08000e-17       0.00000e+00
 119.6000000       2.10400e-17       2.10400e-17       0.00000e+00
 119.7000000       2.12800e-17       2.12800e-17       0.00000e+00
 119.8000000       2.15200e-17       2.15200e-17       0.00000e+00
 119.9000000       2.17600e-17       2.17600e-17       0.00000e+00
 120.0000000       2.19825e-17       2.19825e-17       0.00000e+00
 120.1000000       2.21000e-17       2.21000e-17       0.00000e+00
 120.2000000       2.22000e-17       2.22000e-17       0.00000e+00
 120.3000000       2.23000e-17       2.23000e-17       0.00000e+00
