# C2H6 cross sections
# Alan Heays 2016-11-04
# References: kameta1996, chen2004
# photoabsorption   -- Photoabsorption cross section (cm2)
# photodissociation -- Photodissociation cross section (cm2)
# photoionisation   -- Photoionisation cross section (cm2)
# 
# wavelength   photoabsorption photodissociation   photoionisation
  15.4000000       1.48465e-18       0.00000e+00       1.48465e-18
  15.5000000       1.51003e-18       0.00000e+00       1.51003e-18
  15.6000000       1.54387e-18       0.00000e+00       1.54387e-18
  15.7000000       1.57771e-18       0.00000e+00       1.57771e-18
  15.8000000       1.61155e-18       0.00000e+00       1.61155e-18
  15.9000000       1.64539e-18       0.00000e+00       1.64539e-18
  16.0000000       1.67923e-18       0.00000e+00       1.67923e-18
  16.1000000       1.71306e-18       0.00000e+00       1.71306e-18
  16.2000000       1.74690e-18       0.00000e+00       1.74690e-18
  16.3000000       1.78074e-18       0.00000e+00       1.78074e-18
  16.4000000       1.81458e-18       0.00000e+00       1.81458e-18
  16.5000000       1.84842e-18       0.00000e+00       1.84842e-18
  16.6000000       1.88226e-18       0.00000e+00       1.88226e-18
  16.7000000       1.91610e-18       0.00000e+00       1.91610e-18
  16.8000000       1.94994e-18       0.00000e+00       1.94994e-18
  16.9000000       1.98378e-18       0.00000e+00       1.98378e-18
  17.0000000       2.01762e-18       0.00000e+00       2.01762e-18
  17.1000000       2.05145e-18       0.00000e+00       2.05145e-18
  17.2000000       2.08529e-18       0.00000e+00       2.08529e-18
  17.3000000       2.11913e-18       0.00000e+00       2.11913e-18
  17.4000000       2.15297e-18       0.00000e+00       2.15297e-18
  17.5000000       2.18681e-18       0.00000e+00       2.18681e-18
  17.6000000       2.22065e-18       0.00000e+00       2.22065e-18
  17.7000000       2.25449e-18       0.00000e+00       2.25449e-18
  17.8000000       2.28833e-18       0.00000e+00       2.28833e-18
  17.9000000       2.32217e-18       0.00000e+00       2.32217e-18
  18.0000000       2.35601e-18       0.00000e+00       2.35601e-18
  18.1000000       2.38984e-18       0.00000e+00       2.38984e-18
  18.2000000       2.42368e-18       0.00000e+00       2.42368e-18
  18.3000000       2.45752e-18       0.00000e+00       2.45752e-18
  18.4000000       2.49136e-18       0.00000e+00       2.49136e-18
  18.5000000       2.52520e-18       0.00000e+00       2.52520e-18
  18.6000000       2.55904e-18       0.00000e+00       2.55904e-18
  18.7000000       2.59288e-18       0.00000e+00       2.59288e-18
  18.8000000       2.62672e-18       0.00000e+00       2.62672e-18
  18.9000000       2.66056e-18       0.00000e+00       2.66056e-18
  19.0000000       2.69439e-18       0.00000e+00       2.69439e-18
  19.1000000       2.72823e-18       0.00000e+00       2.72823e-18
  19.2000000       2.76207e-18       0.00000e+00       2.76207e-18
  19.3000000       2.79591e-18       0.00000e+00       2.79591e-18
  19.4000000       2.82975e-18       0.00000e+00       2.82975e-18
  19.5000000       2.86359e-18       0.00000e+00       2.86359e-18
  19.6000000       2.89743e-18       0.00000e+00       2.89743e-18
  19.7000000       2.93127e-18       0.00000e+00       2.93127e-18
  19.8000000       2.96511e-18       0.00000e+00       2.96511e-18
  19.9000000       2.99895e-18       0.00000e+00       2.99895e-18
  20.0000000       3.03278e-18       0.00000e+00       3.03278e-18
  20.1000000       3.06848e-18       0.00000e+00       3.06848e-18
  20.2000000       3.11768e-18       0.00000e+00       3.11768e-18
  20.3000000       3.16960e-18       0.00000e+00       3.16960e-18
  20.4000000       3.22151e-18       0.00000e+00       3.22151e-18
  20.5000000       3.27342e-18       0.00000e+00       3.27342e-18
  20.6000000       3.32533e-18       0.00000e+00       3.32533e-18
  20.7000000       3.37724e-18       0.00000e+00       3.37724e-18
  20.8000000       3.42915e-18       0.00000e+00       3.42915e-18
  20.9000000       3.48106e-18       0.00000e+00       3.48106e-18
  21.0000000       3.53297e-18       0.00000e+00       3.53297e-18
  21.1000000       3.58488e-18       0.00000e+00       3.58488e-18
  21.2000000       3.63679e-18       0.00000e+00       3.63679e-18
  21.3000000       3.68871e-18       0.00000e+00       3.68871e-18
  21.4000000       3.74062e-18       0.00000e+00       3.74062e-18
  21.5000000       3.79253e-18       0.00000e+00       3.79253e-18
  21.6000000       3.84444e-18       0.00000e+00       3.84444e-18
  21.7000000       3.89635e-18       0.00000e+00       3.89635e-18
  21.8000000       3.94826e-18       0.00000e+00       3.94826e-18
  21.9000000       4.00017e-18       0.00000e+00       4.00017e-18
  22.0000000       4.05208e-18       0.00000e+00       4.05208e-18
  22.1000000       4.10399e-18       0.00000e+00       4.10399e-18
  22.2000000       4.15590e-18       0.00000e+00       4.15590e-18
  22.3000000       4.20782e-18       0.00000e+00       4.20782e-18
  22.4000000       4.25973e-18       0.00000e+00       4.25973e-18
  22.5000000       4.31164e-18       0.00000e+00       4.31164e-18
  22.6000000       4.36355e-18       0.00000e+00       4.36355e-18
  22.7000000       4.41546e-18       0.00000e+00       4.41546e-18
  22.8000000       4.46737e-18       0.00000e+00       4.46737e-18
  22.9000000       4.51928e-18       0.00000e+00       4.51928e-18
  23.0000000       4.57119e-18       0.00000e+00       4.57119e-18
  23.1000000       4.62310e-18       0.00000e+00       4.62310e-18
  23.2000000       4.67501e-18       0.00000e+00       4.67501e-18
  23.3000000       4.72693e-18       0.00000e+00       4.72693e-18
  23.4000000       4.77884e-18       0.00000e+00       4.77884e-18
  23.5000000       4.83075e-18       0.00000e+00       4.83075e-18
  23.6000000       4.88266e-18       0.00000e+00       4.88266e-18
  23.7000000       4.93457e-18       0.00000e+00       4.93457e-18
  23.8000000       4.98648e-18       0.00000e+00       4.98648e-18
  23.9000000       5.03839e-18       0.00000e+00       5.03839e-18
  24.0000000       5.09030e-18       0.00000e+00       5.09030e-18
  24.1000000       5.14221e-18       0.00000e+00       5.14221e-18
  24.2000000       5.19412e-18       0.00000e+00       5.19412e-18
  24.3000000       5.24604e-18       0.00000e+00       5.24604e-18
  24.4000000       5.29795e-18       0.00000e+00       5.29795e-18
  24.5000000       5.34986e-18       0.00000e+00       5.34986e-18
  24.6000000       5.40207e-18       0.00000e+00       5.40207e-18
  24.7000000       5.46553e-18       0.00000e+00       5.46553e-18
  24.8000000       5.53469e-18       0.00000e+00       5.53469e-18
  24.9000000       5.60386e-18       0.00000e+00       5.60386e-18
  25.0000000       5.67302e-18       0.00000e+00       5.67302e-18
  25.1000000       5.74218e-18       0.00000e+00       5.74218e-18
  25.2000000       5.81134e-18       0.00000e+00       5.81134e-18
  25.3000000       5.88051e-18       0.00000e+00       5.88051e-18
  25.4000000       5.94967e-18       0.00000e+00       5.94967e-18
  25.5000000       6.01883e-18       0.00000e+00       6.01883e-18
  25.6000000       6.08799e-18       0.00000e+00       6.08799e-18
  25.7000000       6.15716e-18       0.00000e+00       6.15716e-18
  25.8000000       6.22632e-18       0.00000e+00       6.22632e-18
  25.9000000       6.29548e-18       0.00000e+00       6.29548e-18
  26.0000000       6.36464e-18       0.00000e+00       6.36464e-18
  26.1000000       6.43381e-18       0.00000e+00       6.43381e-18
  26.2000000       6.50297e-18       0.00000e+00       6.50297e-18
  26.3000000       6.57213e-18       0.00000e+00       6.57213e-18
  26.4000000       6.64129e-18       0.00000e+00       6.64129e-18
  26.5000000       6.71046e-18       0.00000e+00       6.71046e-18
  26.6000000       6.77962e-18       0.00000e+00       6.77962e-18
  26.7000000       6.84878e-18       0.00000e+00       6.84878e-18
  26.8000000       6.91794e-18       0.00000e+00       6.91794e-18
  26.9000000       6.98711e-18       0.00000e+00       6.98711e-18
  27.0000000       7.05627e-18       0.00000e+00       7.05627e-18
  27.1000000       7.12543e-18       0.00000e+00       7.12543e-18
  27.2000000       7.19459e-18       0.00000e+00       7.19459e-18
  27.3000000       7.26376e-18       0.00000e+00       7.26376e-18
  27.4000000       7.33292e-18       0.00000e+00       7.33292e-18
  27.5000000       7.40208e-18       0.00000e+00       7.40208e-18
  27.6000000       7.47124e-18       0.00000e+00       7.47124e-18
  27.7000000       7.54041e-18       0.00000e+00       7.54041e-18
  27.8000000       7.60957e-18       0.00000e+00       7.60957e-18
  27.9000000       7.67873e-18       0.00000e+00       7.67873e-18
  28.0000000       7.74789e-18       0.00000e+00       7.74789e-18
  28.1000000       7.81706e-18       0.00000e+00       7.81706e-18
  28.2000000       7.88622e-18       0.00000e+00       7.88622e-18
  28.3000000       7.95538e-18       0.00000e+00       7.95538e-18
  28.4000000       8.02454e-18       0.00000e+00       8.02454e-18
  28.5000000       8.09371e-18       0.00000e+00       8.09371e-18
  28.6000000       8.16287e-18       0.00000e+00       8.16287e-18
  28.7000000       8.23203e-18       0.00000e+00       8.23203e-18
  28.8000000       8.30119e-18       0.00000e+00       8.30119e-18
  28.9000000       8.37036e-18       0.00000e+00       8.37036e-18
  29.0000000       8.43952e-18       0.00000e+00       8.43952e-18
  29.1000000       8.50868e-18       0.00000e+00       8.50868e-18
  29.2000000       8.57784e-18       0.00000e+00       8.57784e-18
  29.3000000       8.64701e-18       0.00000e+00       8.64701e-18
  29.4000000       8.71617e-18       0.00000e+00       8.71617e-18
  29.5000000       8.78533e-18       0.00000e+00       8.78533e-18
  29.6000000       8.85449e-18       0.00000e+00       8.85449e-18
  29.7000000       8.92366e-18       0.00000e+00       8.92366e-18
  29.8000000       8.99282e-18       0.00000e+00       8.99282e-18
  29.9000000       9.06198e-18       0.00000e+00       9.06198e-18
  30.0000000       9.13114e-18       0.00000e+00       9.13114e-18
  30.1000000       9.20031e-18       0.00000e+00       9.20031e-18
  30.2000000       9.26947e-18       0.00000e+00       9.26947e-18
  30.3000000       9.33863e-18       0.00000e+00       9.33863e-18
  30.4000000       9.40779e-18       0.00000e+00       9.40779e-18
  30.5000000       9.47695e-18       0.00000e+00       9.47695e-18
  30.6000000       9.54612e-18       0.00000e+00       9.54612e-18
  30.7000000       9.61528e-18       0.00000e+00       9.61528e-18
  30.8000000       9.69508e-18       0.00000e+00       9.69508e-18
  30.9000000       9.79587e-18       0.00000e+00       9.79587e-18
  31.0000000       9.89721e-18       0.00000e+00       9.89721e-18
  31.1000000       9.99856e-18       0.00000e+00       9.99856e-18
  31.2000000       1.00999e-17       0.00000e+00       1.00999e-17
  31.3000000       1.02013e-17       0.00000e+00       1.02013e-17
  31.4000000       1.03026e-17       0.00000e+00       1.03026e-17
  31.5000000       1.04040e-17       0.00000e+00       1.04040e-17
  31.6000000       1.05053e-17       0.00000e+00       1.05053e-17
  31.7000000       1.06067e-17       0.00000e+00       1.06067e-17
  31.8000000       1.07080e-17       0.00000e+00       1.07080e-17
  31.9000000       1.08093e-17       0.00000e+00       1.08093e-17
  32.0000000       1.09107e-17       0.00000e+00       1.09107e-17
  32.1000000       1.10120e-17       0.00000e+00       1.10120e-17
  32.2000000       1.11134e-17       0.00000e+00       1.11134e-17
  32.3000000       1.12147e-17       0.00000e+00       1.12147e-17
  32.4000000       1.13161e-17       0.00000e+00       1.13161e-17
  32.5000000       1.14174e-17       0.00000e+00       1.14174e-17
  32.6000000       1.15188e-17       0.00000e+00       1.15188e-17
  32.7000000       1.16201e-17       0.00000e+00       1.16201e-17
  32.8000000       1.17215e-17       0.00000e+00       1.17215e-17
  32.9000000       1.18228e-17       0.00000e+00       1.18228e-17
  33.0000000       1.19242e-17       0.00000e+00       1.19242e-17
  33.1000000       1.20255e-17       0.00000e+00       1.20255e-17
  33.2000000       1.21269e-17       0.00000e+00       1.21269e-17
  33.3000000       1.22282e-17       0.00000e+00       1.22282e-17
  33.4000000       1.23296e-17       0.00000e+00       1.23296e-17
  33.5000000       1.24309e-17       0.00000e+00       1.24309e-17
  33.6000000       1.25323e-17       0.00000e+00       1.25323e-17
  33.7000000       1.26336e-17       0.00000e+00       1.26336e-17
  33.8000000       1.27350e-17       0.00000e+00       1.27350e-17
  33.9000000       1.28363e-17       0.00000e+00       1.28363e-17
  34.0000000       1.29377e-17       0.00000e+00       1.29377e-17
  34.1000000       1.30390e-17       0.00000e+00       1.30390e-17
  34.2000000       1.31404e-17       0.00000e+00       1.31404e-17
  34.3000000       1.32417e-17       0.00000e+00       1.32417e-17
  34.4000000       1.33431e-17       0.00000e+00       1.33431e-17
  34.5000000       1.34444e-17       0.00000e+00       1.34444e-17
  34.6000000       1.35458e-17       0.00000e+00       1.35458e-17
  34.7000000       1.36471e-17       0.00000e+00       1.36471e-17
  34.8000000       1.37485e-17       0.00000e+00       1.37485e-17
  34.9000000       1.38498e-17       0.00000e+00       1.38498e-17
  35.0000000       1.39512e-17       0.00000e+00       1.39512e-17
  35.1000000       1.40525e-17       0.00000e+00       1.40525e-17
  35.2000000       1.41538e-17       0.00000e+00       1.41538e-17
  35.3000000       1.42552e-17       0.00000e+00       1.42552e-17
  35.4000000       1.43565e-17       0.00000e+00       1.43565e-17
  35.5000000       1.44579e-17       0.00000e+00       1.44579e-17
  35.6000000       1.45592e-17       0.00000e+00       1.45592e-17
  35.7000000       1.46606e-17       0.00000e+00       1.46606e-17
  35.8000000       1.47619e-17       0.00000e+00       1.47619e-17
  35.9000000       1.48633e-17       0.00000e+00       1.48633e-17
  36.0000000       1.49646e-17       0.00000e+00       1.49646e-17
  36.1000000       1.50660e-17       0.00000e+00       1.50660e-17
  36.2000000       1.51673e-17       0.00000e+00       1.51673e-17
  36.3000000       1.52687e-17       0.00000e+00       1.52687e-17
  36.4000000       1.53700e-17       0.00000e+00       1.53700e-17
  36.5000000       1.54714e-17       0.00000e+00       1.54714e-17
  36.6000000       1.55727e-17       0.00000e+00       1.55727e-17
  36.7000000       1.56741e-17       0.00000e+00       1.56741e-17
  36.8000000       1.57754e-17       0.00000e+00       1.57754e-17
  36.9000000       1.58768e-17       0.00000e+00       1.58768e-17
  37.0000000       1.59781e-17       0.00000e+00       1.59781e-17
  37.1000000       1.60795e-17       0.00000e+00       1.60795e-17
  37.2000000       1.61808e-17       0.00000e+00       1.61808e-17
  37.3000000       1.62822e-17       0.00000e+00       1.62822e-17
  37.4000000       1.63835e-17       0.00000e+00       1.63835e-17
  37.5000000       1.64849e-17       0.00000e+00       1.64849e-17
  37.6000000       1.65862e-17       0.00000e+00       1.65862e-17
  37.7000000       1.66876e-17       0.00000e+00       1.66876e-17
  37.8000000       1.67889e-17       0.00000e+00       1.67889e-17
  37.9000000       1.68903e-17       0.00000e+00       1.68903e-17
  38.0000000       1.69916e-17       0.00000e+00       1.69916e-17
  38.1000000       1.70930e-17       0.00000e+00       1.70930e-17
  38.2000000       1.71943e-17       0.00000e+00       1.71943e-17
  38.3000000       1.72957e-17       0.00000e+00       1.72957e-17
  38.4000000       1.73970e-17       0.00000e+00       1.73970e-17
  38.5000000       1.74983e-17       0.00000e+00       1.74983e-17
  38.6000000       1.75997e-17       0.00000e+00       1.75997e-17
  38.7000000       1.77010e-17       0.00000e+00       1.77010e-17
  38.8000000       1.78024e-17       0.00000e+00       1.78024e-17
  38.9000000       1.79037e-17       0.00000e+00       1.79037e-17
  39.0000000       1.80051e-17       0.00000e+00       1.80051e-17
  39.1000000       1.81064e-17       0.00000e+00       1.81064e-17
  39.2000000       1.82078e-17       0.00000e+00       1.82078e-17
  39.3000000       1.83091e-17       0.00000e+00       1.83091e-17
  39.4000000       1.84105e-17       0.00000e+00       1.84105e-17
  39.5000000       1.85118e-17       0.00000e+00       1.85118e-17
  39.6000000       1.86132e-17       0.00000e+00       1.86132e-17
  39.7000000       1.87145e-17       0.00000e+00       1.87145e-17
  39.8000000       1.88159e-17       0.00000e+00       1.88159e-17
  39.9000000       1.89172e-17       0.00000e+00       1.89172e-17
  40.0000000       1.90186e-17       0.00000e+00       1.90186e-17
  40.1000000       1.91199e-17       0.00000e+00       1.91199e-17
  40.2000000       1.92243e-17       0.00000e+00       1.92243e-17
  40.3000000       1.93562e-17       0.00000e+00       1.93562e-17
  40.4000000       1.94946e-17       0.00000e+00       1.94946e-17
  40.5000000       1.96330e-17       0.00000e+00       1.96330e-17
  40.6000000       1.97714e-17       0.00000e+00       1.97714e-17
  40.7000000       1.99098e-17       0.00000e+00       1.99098e-17
  40.8000000       2.00482e-17       0.00000e+00       2.00482e-17
  40.9000000       2.01866e-17       0.00000e+00       2.01866e-17
  41.0000000       2.03250e-17       0.00000e+00       2.03250e-17
  41.1000000       2.04634e-17       0.00000e+00       2.04634e-17
  41.2000000       2.06018e-17       0.00000e+00       2.06018e-17
  41.3000000       2.07402e-17       0.00000e+00       2.07402e-17
  41.4000000       2.08786e-17       0.00000e+00       2.08786e-17
  41.5000000       2.10170e-17       0.00000e+00       2.10170e-17
  41.6000000       2.11554e-17       0.00000e+00       2.11554e-17
  41.7000000       2.12938e-17       0.00000e+00       2.12938e-17
  41.8000000       2.14322e-17       0.00000e+00       2.14322e-17
  41.9000000       2.15706e-17       0.00000e+00       2.15706e-17
  42.0000000       2.17090e-17       0.00000e+00       2.17090e-17
  42.1000000       2.18474e-17       0.00000e+00       2.18474e-17
  42.2000000       2.19858e-17       0.00000e+00       2.19858e-17
  42.3000000       2.21242e-17       0.00000e+00       2.21242e-17
  42.4000000       2.22626e-17       0.00000e+00       2.22626e-17
  42.5000000       2.24010e-17       0.00000e+00       2.24010e-17
  42.6000000       2.25394e-17       0.00000e+00       2.25394e-17
  42.7000000       2.26778e-17       0.00000e+00       2.26778e-17
  42.8000000       2.28162e-17       0.00000e+00       2.28162e-17
  42.9000000       2.29546e-17       0.00000e+00       2.29546e-17
  43.0000000       2.30930e-17       0.00000e+00       2.30930e-17
  43.1000000       2.32315e-17       0.00000e+00       2.32315e-17
  43.2000000       2.33699e-17       0.00000e+00       2.33699e-17
  43.3000000       2.35083e-17       0.00000e+00       2.35083e-17
  43.4000000       2.36467e-17       0.00000e+00       2.36467e-17
  43.5000000       2.37851e-17       0.00000e+00       2.37851e-17
  43.6000000       2.39235e-17       0.00000e+00       2.39235e-17
  43.7000000       2.40619e-17       0.00000e+00       2.40619e-17
  43.8000000       2.42003e-17       0.00000e+00       2.42003e-17
  43.9000000       2.43387e-17       0.00000e+00       2.43387e-17
  44.0000000       2.44771e-17       0.00000e+00       2.44771e-17
  44.1000000       2.46155e-17       0.00000e+00       2.46155e-17
  44.2000000       2.47539e-17       0.00000e+00       2.47539e-17
  44.3000000       2.48923e-17       0.00000e+00       2.48923e-17
  44.4000000       2.50307e-17       0.00000e+00       2.50307e-17
  44.5000000       2.51691e-17       0.00000e+00       2.51691e-17
  44.6000000       2.53075e-17       0.00000e+00       2.53075e-17
