# Ca photoionisation cross section
# Alan Heays 2016-02-03
# Reference: yih1998, carter1971, TOPbase database
# photoionisation: Photoionisation cross section (cm2)
# Ca+: Ca + hnu -> Ca+ + e- cross section (cm2)
# 
# wavelength   photoabsorption   photoionisation
  18.7000000       1.16015e-20       1.16015e-20
  18.8000000       1.17412e-20       1.17412e-20
  18.9000000       1.19275e-20       1.19275e-20
  19.0000000       1.21163e-20       1.21163e-20
  19.1000000       1.23116e-20       1.23116e-20
  19.2000000       1.25072e-20       1.25072e-20
  19.3000000       1.27028e-20       1.27028e-20
  19.4000000       1.29010e-20       1.29010e-20
  19.5000000       1.31030e-20       1.31030e-20
  19.6000000       1.33050e-20       1.33050e-20
  19.7000000       1.35070e-20       1.35070e-20
  19.8000000       1.37132e-20       1.37132e-20
  19.9000000       1.39237e-20       1.39237e-20
  20.0000000       1.41342e-20       1.41342e-20
  20.1000000       1.43447e-20       1.43447e-20
  20.2000000       1.45606e-20       1.45606e-20
  20.3000000       1.47817e-20       1.47817e-20
  20.4000000       1.50028e-20       1.50028e-20
  20.5000000       1.52240e-20       1.52240e-20
  20.6000000       1.54484e-20       1.54484e-20
  20.7000000       1.56771e-20       1.56771e-20
  20.8000000       1.59059e-20       1.59059e-20
  20.9000000       1.61346e-20       1.61346e-20
  21.0000000       1.63656e-20       1.63656e-20
  21.1000000       1.66014e-20       1.66014e-20
  21.2000000       1.68374e-20       1.68374e-20
  21.3000000       1.70734e-20       1.70734e-20
  21.4000000       1.73111e-20       1.73111e-20
  21.5000000       1.75575e-20       1.75575e-20
  21.6000000       1.78050e-20       1.78050e-20
  21.7000000       1.80526e-20       1.80526e-20
  21.8000000       1.83004e-20       1.83004e-20
  21.9000000       1.85556e-20       1.85556e-20
  22.0000000       1.88142e-20       1.88142e-20
  22.1000000       1.90728e-20       1.90728e-20
  22.2000000       1.93313e-20       1.93313e-20
  22.3000000       1.95933e-20       1.95933e-20
  22.4000000       1.98621e-20       1.98621e-20
  22.5000000       2.01310e-20       2.01310e-20
  22.6000000       2.04000e-20       2.04000e-20
  22.7000000       2.06694e-20       2.06694e-20
  22.8000000       2.09459e-20       2.09459e-20
  22.9000000       2.12247e-20       2.12247e-20
  23.0000000       2.15036e-20       2.15036e-20
  23.1000000       2.17825e-20       2.17825e-20
  23.2000000       2.20644e-20       2.20644e-20
  23.3000000       2.23544e-20       2.23544e-20
  23.4000000       2.26449e-20       2.26449e-20
  23.5000000       2.29353e-20       2.29353e-20
  23.6000000       2.32258e-20       2.32258e-20
  23.7000000       2.35222e-20       2.35222e-20
  23.8000000       2.38236e-20       2.38236e-20
  23.9000000       2.41251e-20       2.41251e-20
  24.0000000       2.44265e-20       2.44265e-20
  24.1000000       2.47284e-20       2.47284e-20
  24.2000000       2.50389e-20       2.50389e-20
  24.3000000       2.53529e-20       2.53529e-20
  24.4000000       2.56669e-20       2.56669e-20
  24.5000000       2.59809e-20       2.59809e-20
  24.6000000       2.62959e-20       2.62959e-20
  24.7000000       2.66211e-20       2.66211e-20
  24.8000000       2.69490e-20       2.69490e-20
  24.9000000       2.72768e-20       2.72768e-20
  25.0000000       2.76046e-20       2.76046e-20
  25.1000000       2.79336e-20       2.79336e-20
  25.2000000       2.82724e-20       2.82724e-20
  25.3000000       2.86135e-20       2.86135e-20
  25.4000000       2.89546e-20       2.89546e-20
  25.5000000       2.92957e-20       2.92957e-20
  25.6000000       2.96376e-20       2.96376e-20
  25.7000000       2.99901e-20       2.99901e-20
  25.8000000       3.03456e-20       3.03456e-20
  25.9000000       3.07012e-20       3.07012e-20
  26.0000000       3.10568e-20       3.10568e-20
  26.1000000       3.14125e-20       3.14125e-20
  26.2000000       3.17771e-20       3.17771e-20
  26.3000000       3.21465e-20       3.21465e-20
  26.4000000       3.25159e-20       3.25159e-20
  26.5000000       3.28853e-20       3.28853e-20
  26.6000000       3.32547e-20       3.32547e-20
  26.7000000       3.36300e-20       3.36300e-20
  26.8000000       3.40142e-20       3.40142e-20
  26.9000000       3.43985e-20       3.43985e-20
  27.0000000       3.47829e-20       3.47829e-20
  27.1000000       3.51672e-20       3.51672e-20
  27.2000000       3.55536e-20       3.55536e-20
  27.3000000       3.59520e-20       3.59520e-20
  27.4000000       3.63523e-20       3.63523e-20
  27.5000000       3.67527e-20       3.67527e-20
  27.6000000       3.71531e-20       3.71531e-20
  27.7000000       3.75534e-20       3.75534e-20
  27.8000000       3.79616e-20       3.79616e-20
  27.9000000       3.83773e-20       3.83773e-20
  28.0000000       3.87930e-20       3.87930e-20
  28.1000000       3.92087e-20       3.92087e-20
  28.2000000       3.96244e-20       3.96244e-20
  28.3000000       4.00416e-20       4.00416e-20
  28.4000000       4.04720e-20       4.04720e-20
  28.5000000       4.09057e-20       4.09057e-20
  28.6000000       4.13393e-20       4.13393e-20
  28.7000000       4.17729e-20       4.17729e-20
  28.8000000       4.22066e-20       4.22066e-20
  28.9000000       4.26442e-20       4.26442e-20
  29.0000000       4.30941e-20       4.30941e-20
  29.1000000       4.35448e-20       4.35448e-20
  29.2000000       4.39956e-20       4.39956e-20
  29.3000000       4.44463e-20       4.44463e-20
  29.4000000       4.48970e-20       4.48970e-20
  29.5000000       4.53543e-20       4.53543e-20
  29.6000000       4.58228e-20       4.58228e-20
  29.7000000       4.62916e-20       4.62916e-20
  29.8000000       4.67603e-20       4.67603e-20
  29.9000000       4.72291e-20       4.72291e-20
  30.0000000       4.76978e-20       4.76978e-20
  30.1000000       4.81748e-20       4.81748e-20
  30.2000000       4.86638e-20       4.86638e-20
  30.3000000       4.91529e-20       4.91529e-20
  30.4000000       4.96421e-20       4.96421e-20
  30.5000000       5.01312e-20       5.01312e-20
  30.6000000       5.06203e-20       5.06203e-20
  30.7000000       5.11160e-20       5.11160e-20
  30.8000000       5.16241e-20       5.16241e-20
  30.9000000       5.21325e-20       5.21325e-20
  31.0000000       5.26409e-20       5.26409e-20
  31.1000000       5.31493e-20       5.31493e-20
  31.2000000       5.36577e-20       5.36577e-20
  31.3000000       5.41704e-20       5.41704e-20
  31.4000000       5.46990e-20       5.46990e-20
  31.5000000       5.52290e-20       5.52290e-20
  31.6000000       5.57591e-20       5.57591e-20
  31.7000000       5.62892e-20       5.62892e-20
  31.8000000       5.68192e-20       5.68192e-20
  31.9000000       5.73503e-20       5.73503e-20
  32.0000000       5.78960e-20       5.78960e-20
  32.1000000       5.84465e-20       5.84465e-20
  32.2000000       5.89971e-20       5.89971e-20
  32.3000000       5.95476e-20       5.95476e-20
  32.4000000       6.00982e-20       6.00982e-20
  32.5000000       6.06487e-20       6.06487e-20
  32.6000000       6.12077e-20       6.12077e-20
  32.7000000       6.17805e-20       6.17805e-20
  32.8000000       6.23535e-20       6.23535e-20
  32.9000000       6.29265e-20       6.29265e-20
  33.0000000       6.34996e-20       6.34996e-20
  33.1000000       6.40726e-20       6.40726e-20
  33.2000000       6.46466e-20       6.46466e-20
  33.3000000       6.52379e-20       6.52379e-20
  33.4000000       6.58354e-20       6.58354e-20
  33.5000000       6.64329e-20       6.64329e-20
  33.6000000       6.70304e-20       6.70304e-20
  33.7000000       6.76280e-20       6.76280e-20
  33.8000000       6.82255e-20       6.82255e-20
  33.9000000       6.88268e-20       6.88268e-20
  34.0000000       6.94455e-20       6.94455e-20
  34.1000000       7.00663e-20       7.00663e-20
  34.2000000       7.06871e-20       7.06871e-20
  34.3000000       7.13079e-20       7.13079e-20
  34.4000000       7.19287e-20       7.19287e-20
  34.5000000       7.25495e-20       7.25495e-20
  34.6000000       7.31772e-20       7.31772e-20
  34.7000000       7.38232e-20       7.38232e-20
  34.8000000       7.44702e-20       7.44702e-20
  34.9000000       7.51172e-20       7.51172e-20
  35.0000000       7.57643e-20       7.57643e-20
  35.1000000       7.64113e-20       7.64113e-20
  35.2000000       7.70583e-20       7.70583e-20
  35.3000000       7.77122e-20       7.77122e-20
  35.4000000       7.83835e-20       7.83835e-20
  35.5000000       7.90557e-20       7.90557e-20
  35.6000000       7.97279e-20       7.97279e-20
  35.7000000       8.04001e-20       8.04001e-20
  35.8000000       8.10723e-20       8.10723e-20
  35.9000000       8.17444e-20       8.17444e-20
  36.0000000       8.24219e-20       8.24219e-20
  36.1000000       8.31200e-20       8.31200e-20
  36.2000000       8.38201e-20       8.38201e-20
  36.3000000       8.45202e-20       8.45202e-20
  36.4000000       8.52204e-20       8.52204e-20
  36.5000000       8.59205e-20       8.59205e-20
  36.6000000       8.66206e-20       8.66206e-20
  36.7000000       8.73225e-20       8.73225e-20
  36.8000000       8.80456e-20       8.80456e-20
  36.9000000       8.87750e-20       8.87750e-20
  37.0000000       8.95044e-20       8.95044e-20
  37.1000000       9.02338e-20       9.02338e-20
  37.2000000       9.09632e-20       9.09632e-20
  37.3000000       9.16926e-20       9.16926e-20
  37.4000000       9.24221e-20       9.24221e-20
  37.5000000       9.29136e-20       9.29136e-20
  37.6000000       9.30909e-20       9.30909e-20
  37.7000000       9.32667e-20       9.32667e-20
  37.8000000       9.34426e-20       9.34426e-20
  37.9000000       9.36184e-20       9.36184e-20
  38.0000000       9.37942e-20       9.37942e-20
  38.1000000       9.39701e-20       9.39701e-20
  38.2000000       9.41459e-20       9.41459e-20
  38.3000000       9.43217e-20       9.43217e-20
  38.4000000       9.44976e-20       9.44976e-20
  38.5000000       9.46734e-20       9.46734e-20
  38.6000000       9.48492e-20       9.48492e-20
  38.7000000       9.50251e-20       9.50251e-20
  38.8000000       9.52009e-20       9.52009e-20
  38.9000000       9.53767e-20       9.53767e-20
  39.0000000       9.55526e-20       9.55526e-20
  39.1000000       9.57284e-20       9.57284e-20
  39.2000000       9.59042e-20       9.59042e-20
  39.3000000       9.60801e-20       9.60801e-20
  39.4000000       9.62559e-20       9.62559e-20
  39.5000000       9.64317e-20       9.64317e-20
  39.6000000       9.66076e-20       9.66076e-20
  39.7000000       9.67834e-20       9.67834e-20
  39.8000000       9.69592e-20       9.69592e-20
  39.9000000       9.71351e-20       9.71351e-20
  40.0000000       9.73109e-20       9.73109e-20
  40.1000000       9.74867e-20       9.74867e-20
  40.2000000       9.76626e-20       9.76626e-20
  40.3000000       9.78384e-20       9.78384e-20
  40.4000000       9.80142e-20       9.80142e-20
  40.5000000       9.81901e-20       9.81901e-20
  40.6000000       9.83659e-20       9.83659e-20
  40.7000000       9.85417e-20       9.85417e-20
  40.8000000       9.87251e-20       9.87251e-20
  40.9000000       9.89392e-20       9.89392e-20
  41.0000000       9.91567e-20       9.91567e-20
  41.1000000       9.93742e-20       9.93742e-20
  41.2000000       9.95916e-20       9.95916e-20
  41.3000000       9.98091e-20       9.98091e-20
  41.4000000       1.00027e-19       1.00027e-19
  41.5000000       1.00244e-19       1.00244e-19
  41.6000000       1.00462e-19       1.00462e-19
  41.7000000       1.00679e-19       1.00679e-19
  41.8000000       1.00896e-19       1.00896e-19
  41.9000000       1.01114e-19       1.01114e-19
  42.0000000       1.01331e-19       1.01331e-19
  42.1000000       1.01549e-19       1.01549e-19
  42.2000000       1.01766e-19       1.01766e-19
  42.3000000       1.01984e-19       1.01984e-19
  42.4000000       1.02201e-19       1.02201e-19
  42.5000000       1.02419e-19       1.02419e-19
  42.6000000       1.02636e-19       1.02636e-19
  42.7000000       1.02854e-19       1.02854e-19
  42.8000000       1.03071e-19       1.03071e-19
  42.9000000       1.03289e-19       1.03289e-19
  43.0000000       1.03506e-19       1.03506e-19
  43.1000000       1.03724e-19       1.03724e-19
  43.2000000       1.03941e-19       1.03941e-19
  43.3000000       1.04159e-19       1.04159e-19
  43.4000000       1.04376e-19       1.04376e-19
  43.5000000       1.04594e-19       1.04594e-19
  43.6000000       1.04811e-19       1.04811e-19
  43.7000000       1.05028e-19       1.05028e-19
  43.8000000       1.05246e-19       1.05246e-19
  43.9000000       1.05463e-19       1.05463e-19
  44.0000000       1.05681e-19       1.05681e-19
  44.1000000       1.05898e-19       1.05898e-19
  44.2000000       1.06116e-19       1.06116e-19
  44.3000000       1.06333e-19       1.06333e-19
  44.4000000       1.06551e-19       1.06551e-19
  44.5000000       1.06768e-19       1.06768e-19
  44.6000000       1.06986e-19       1.06986e-19
  44.7000000       1.07203e-19       1.07203e-19
  44.8000000       1.07421e-19       1.07421e-19
  44.9000000       1.07638e-19       1.07638e-19
  45.0000000       1.07856e-19       1.07856e-19
  45.1000000       1.08073e-19       1.08073e-19
  45.2000000       1.08291e-19       1.08291e-19
  45.3000000       1.08508e-19       1.08508e-19
  45.4000000       1.08726e-19       1.08726e-19
  45.5000000       1.08943e-19       1.08943e-19
  45.6000000       1.09160e-19       1.09160e-19
  45.7000000       1.09378e-19       1.09378e-19
  45.8000000       1.09595e-19       1.09595e-19
  45.9000000       1.09813e-19       1.09813e-19
  46.0000000       1.10030e-19       1.10030e-19
  46.1000000       1.10248e-19       1.10248e-19
  46.2000000       1.10465e-19       1.10465e-19
  46.3000000       1.10683e-19       1.10683e-19
  46.4000000       1.10900e-19       1.10900e-19
  46.5000000       1.11118e-19       1.11118e-19
  46.6000000       1.11335e-19       1.11335e-19
  46.7000000       1.11553e-19       1.11553e-19
  46.8000000       1.11770e-19       1.11770e-19
  46.9000000       1.11988e-19       1.11988e-19
  47.0000000       1.12205e-19       1.12205e-19
  47.1000000       1.12423e-19       1.12423e-19
  47.2000000       1.12640e-19       1.12640e-19
  47.3000000       1.12858e-19       1.12858e-19
  47.4000000       1.13075e-19       1.13075e-19
  47.5000000       1.13292e-19       1.13292e-19
  47.6000000       1.13510e-19       1.13510e-19
  47.7000000       1.13727e-19       1.13727e-19
  47.8000000       1.13945e-19       1.13945e-19
  47.9000000       1.14162e-19       1.14162e-19
  48.0000000       1.14380e-19       1.14380e-19
  48.1000000       1.14597e-19       1.14597e-19
  48.2000000       1.14815e-19       1.14815e-19
  48.3000000       1.15032e-19       1.15032e-19
  48.4000000       1.15250e-19       1.15250e-19
  48.5000000       1.15467e-19       1.15467e-19
  48.6000000       1.15685e-19       1.15685e-19
  48.7000000       1.15902e-19       1.15902e-19
  48.8000000       1.16120e-19       1.16120e-19
  48.9000000       1.16337e-19       1.16337e-19
  49.0000000       1.16555e-19       1.16555e-19
  49.1000000       1.16772e-19       1.16772e-19
  49.2000000       1.16990e-19       1.16990e-19
  49.3000000       1.17207e-19       1.17207e-19
  49.4000000       1.17424e-19       1.17424e-19
  49.5000000       1.17642e-19       1.17642e-19
  49.6000000       1.17859e-19       1.17859e-19
  49.7000000       1.18077e-19       1.18077e-19
  49.8000000       1.18294e-19       1.18294e-19
  49.9000000       1.18512e-19       1.18512e-19
  50.0000000       1.18729e-19       1.18729e-19
  50.1000000       1.18947e-19       1.18947e-19
  50.2000000       1.19164e-19       1.19164e-19
  50.3000000       1.19382e-19       1.19382e-19
  50.4000000       1.19599e-19       1.19599e-19
  50.5000000       1.19817e-19       1.19817e-19
  50.6000000       1.20034e-19       1.20034e-19
  50.7000000       1.20252e-19       1.20252e-19
  50.8000000       1.20469e-19       1.20469e-19
  50.9000000       1.20687e-19       1.20687e-19
  51.0000000       1.20904e-19       1.20904e-19
  51.1000000       1.21121e-19       1.21121e-19
  51.2000000       1.21339e-19       1.21339e-19
  51.3000000       1.21556e-19       1.21556e-19
  51.4000000       1.21774e-19       1.21774e-19
  51.5000000       1.21991e-19       1.21991e-19
  51.6000000       1.22209e-19       1.22209e-19
  51.7000000       1.22426e-19       1.22426e-19
  51.8000000       1.22644e-19       1.22644e-19
  51.9000000       1.22861e-19       1.22861e-19
  52.0000000       1.23079e-19       1.23079e-19
  52.1000000       1.23296e-19       1.23296e-19
  52.2000000       1.23514e-19       1.23514e-19
  52.3000000       1.23731e-19       1.23731e-19
  52.4000000       1.23949e-19       1.23949e-19
  52.5000000       1.24166e-19       1.24166e-19
  52.6000000       1.24384e-19       1.24384e-19
  52.7000000       1.24601e-19       1.24601e-19
  52.8000000       1.24819e-19       1.24819e-19
  52.9000000       1.25036e-19       1.25036e-19
  53.0000000       1.25253e-19       1.25253e-19
  53.1000000       1.25471e-19       1.25471e-19
  53.2000000       1.25688e-19       1.25688e-19
  53.3000000       1.25906e-19       1.25906e-19
  53.4000000       1.26123e-19       1.26123e-19
  53.5000000       1.26341e-19       1.26341e-19
  53.6000000       1.26558e-19       1.26558e-19
  53.7000000       1.26776e-19       1.26776e-19
  53.8000000       1.26993e-19       1.26993e-19
  53.9000000       1.27211e-19       1.27211e-19
  54.0000000       1.27428e-19       1.27428e-19
  54.1000000       1.27646e-19       1.27646e-19
  54.2000000       1.27863e-19       1.27863e-19
  54.3000000       1.28081e-19       1.28081e-19
  54.4000000       1.28298e-19       1.28298e-19
  54.5000000       1.28516e-19       1.28516e-19
  54.6000000       1.28733e-19       1.28733e-19
  54.7000000       1.28951e-19       1.28951e-19
  54.8000000       1.29168e-19       1.29168e-19
  54.9000000       1.29385e-19       1.29385e-19
  55.0000000       1.29603e-19       1.29603e-19
  55.1000000       1.29820e-19       1.29820e-19
  55.2000000       1.30038e-19       1.30038e-19
  55.3000000       1.30255e-19       1.30255e-19
  55.4000000       1.30473e-19       1.30473e-19
  55.5000000       1.30690e-19       1.30690e-19
  55.6000000       1.30908e-19       1.30908e-19
  55.7000000       1.31196e-19       1.31196e-19
  55.8000000       1.31535e-19       1.31535e-19
  55.9000000       1.31875e-19       1.31875e-19
  56.0000000       1.32214e-19       1.32214e-19
  56.1000000       1.32554e-19       1.32554e-19
  56.2000000       1.32893e-19       1.32893e-19
  56.3000000       1.33233e-19       1.33233e-19
  56.4000000       1.33573e-19       1.33573e-19
  56.5000000       1.33912e-19       1.33912e-19
  56.6000000       1.34252e-19       1.34252e-19
  56.7000000       1.34591e-19       1.34591e-19
  56.8000000       1.34931e-19       1.34931e-19
  56.9000000       1.35270e-19       1.35270e-19
  57.0000000       1.35610e-19       1.35610e-19
  57.1000000       1.35950e-19       1.35950e-19
  57.2000000       1.36289e-19       1.36289e-19
  57.3000000       1.36629e-19       1.36629e-19
  57.4000000       1.36968e-19       1.36968e-19
  57.5000000       1.37308e-19       1.37308e-19
  57.6000000       1.37647e-19       1.37647e-19
  57.7000000       1.37987e-19       1.37987e-19
  57.8000000       1.38326e-19       1.38326e-19
  57.9000000       1.38666e-19       1.38666e-19
  58.0000000       1.39006e-19       1.39006e-19
  58.1000000       1.39345e-19       1.39345e-19
  58.2000000       1.39685e-19       1.39685e-19
  58.3000000       1.40024e-19       1.40024e-19
  58.4000000       1.40364e-19       1.40364e-19
  58.5000000       1.40703e-19       1.40703e-19
  58.6000000       1.41043e-19       1.41043e-19
  58.7000000       1.41383e-19       1.41383e-19
  58.8000000       1.41722e-19       1.41722e-19
