# b'CH3CHO cross sections\nAlan Heays 2015-10-05\nReferences: hurzeler1958, limao-vieira2003, vega2010\nphotoabsorption   -- Photoabsorption cross section (cm2)\nphotodissociation -- Photodissociation cross section (cm2)\nphotoionisation   -- Photoionisation cross section (cm2)'
# 
# wavelength   photoabsorption photodissociation   photoionisation
  24.8000000       1.74010e-18       0.00000e+00       1.74010e-18
  24.9000000       1.75170e-18       0.00000e+00       1.75170e-18
  25.0000000       1.76717e-18       0.00000e+00       1.76717e-18
  25.1000000       1.78264e-18       0.00000e+00       1.78264e-18
  25.2000000       1.79811e-18       0.00000e+00       1.79811e-18
  25.3000000       1.81362e-18       0.00000e+00       1.81362e-18
  25.4000000       1.82936e-18       0.00000e+00       1.82936e-18
  25.5000000       1.84514e-18       0.00000e+00       1.84514e-18
  25.6000000       1.86093e-18       0.00000e+00       1.86093e-18
  25.7000000       1.87671e-18       0.00000e+00       1.87671e-18
  25.8000000       1.89250e-18       0.00000e+00       1.89250e-18
  25.9000000       1.90855e-18       0.00000e+00       1.90855e-18
  26.0000000       1.92472e-18       0.00000e+00       1.92472e-18
  26.1000000       1.94089e-18       0.00000e+00       1.94089e-18
  26.2000000       1.95706e-18       0.00000e+00       1.95706e-18
  26.3000000       1.97324e-18       0.00000e+00       1.97324e-18
  26.4000000       1.98949e-18       0.00000e+00       1.98949e-18
  26.5000000       2.00596e-18       0.00000e+00       2.00596e-18
  26.6000000       2.02244e-18       0.00000e+00       2.02244e-18
  26.7000000       2.03893e-18       0.00000e+00       2.03893e-18
  26.8000000       2.05542e-18       0.00000e+00       2.05542e-18
  26.9000000       2.07190e-18       0.00000e+00       2.07190e-18
  27.0000000       2.08857e-18       0.00000e+00       2.08857e-18
  27.1000000       2.10545e-18       0.00000e+00       2.10545e-18
  27.2000000       2.12233e-18       0.00000e+00       2.12233e-18
  27.3000000       2.13921e-18       0.00000e+00       2.13921e-18
  27.4000000       2.15609e-18       0.00000e+00       2.15609e-18
  27.5000000       2.17297e-18       0.00000e+00       2.17297e-18
  27.6000000       2.19006e-18       0.00000e+00       2.19006e-18
  27.7000000       2.20737e-18       0.00000e+00       2.20737e-18
  27.8000000       2.22468e-18       0.00000e+00       2.22468e-18
  27.9000000       2.24200e-18       0.00000e+00       2.24200e-18
  28.0000000       2.25931e-18       0.00000e+00       2.25931e-18
  28.1000000       2.27662e-18       0.00000e+00       2.27662e-18
  28.2000000       2.29402e-18       0.00000e+00       2.29402e-18
  28.3000000       2.31167e-18       0.00000e+00       2.31167e-18
  28.4000000       2.32933e-18       0.00000e+00       2.32933e-18
  28.5000000       2.34698e-18       0.00000e+00       2.34698e-18
  28.6000000       2.36464e-18       0.00000e+00       2.36464e-18
  28.7000000       2.38230e-18       0.00000e+00       2.38230e-18
  28.8000000       2.39997e-18       0.00000e+00       2.39997e-18
  28.9000000       2.41792e-18       0.00000e+00       2.41792e-18
  29.0000000       2.43604e-18       0.00000e+00       2.43604e-18
  29.1000000       2.45415e-18       0.00000e+00       2.45415e-18
  29.2000000       2.47227e-18       0.00000e+00       2.47227e-18
  29.3000000       2.49038e-18       0.00000e+00       2.49038e-18
  29.4000000       2.50850e-18       0.00000e+00       2.50850e-18
  29.5000000       2.52663e-18       0.00000e+00       2.52663e-18
  29.6000000       2.54507e-18       0.00000e+00       2.54507e-18
  29.7000000       2.56360e-18       0.00000e+00       2.56360e-18
  29.8000000       2.58214e-18       0.00000e+00       2.58214e-18
  29.9000000       2.60067e-18       0.00000e+00       2.60067e-18
  30.0000000       2.61921e-18       0.00000e+00       2.61921e-18
  30.1000000       2.63775e-18       0.00000e+00       2.63775e-18
  30.2000000       2.65629e-18       0.00000e+00       2.65629e-18
  30.3000000       2.67508e-18       0.00000e+00       2.67508e-18
  30.4000000       2.69406e-18       0.00000e+00       2.69406e-18
  30.5000000       2.71303e-18       0.00000e+00       2.71303e-18
  30.6000000       2.73201e-18       0.00000e+00       2.73201e-18
  30.7000000       2.75098e-18       0.00000e+00       2.75098e-18
  30.8000000       2.76996e-18       0.00000e+00       2.76996e-18
  30.9000000       2.78893e-18       0.00000e+00       2.78893e-18
  31.0000000       2.80799e-18       0.00000e+00       2.80799e-18
  31.1000000       2.82744e-18       0.00000e+00       2.82744e-18
  31.2000000       2.84696e-18       0.00000e+00       2.84696e-18
  31.3000000       2.86647e-18       0.00000e+00       2.86647e-18
  31.4000000       2.88598e-18       0.00000e+00       2.88598e-18
  31.5000000       2.90549e-18       0.00000e+00       2.90549e-18
  31.6000000       2.92501e-18       0.00000e+00       2.92501e-18
  31.7000000       2.94452e-18       0.00000e+00       2.94452e-18
  31.8000000       2.96411e-18       0.00000e+00       2.96411e-18
  31.9000000       2.98400e-18       0.00000e+00       2.98400e-18
  32.0000000       3.00393e-18       0.00000e+00       3.00393e-18
  32.1000000       3.02385e-18       0.00000e+00       3.02385e-18
  32.2000000       3.04378e-18       0.00000e+00       3.04378e-18
  32.3000000       3.06371e-18       0.00000e+00       3.06371e-18
  32.4000000       3.08364e-18       0.00000e+00       3.08364e-18
  32.5000000       3.10356e-18       0.00000e+00       3.10356e-18
  32.6000000       3.12351e-18       0.00000e+00       3.12351e-18
  32.7000000       3.14381e-18       0.00000e+00       3.14381e-18
  32.8000000       3.16427e-18       0.00000e+00       3.16427e-18
  32.9000000       3.18473e-18       0.00000e+00       3.18473e-18
  33.0000000       3.20519e-18       0.00000e+00       3.20519e-18
  33.1000000       3.22565e-18       0.00000e+00       3.22565e-18
  33.2000000       3.24611e-18       0.00000e+00       3.24611e-18
  33.3000000       3.26658e-18       0.00000e+00       3.26658e-18
  33.4000000       3.28704e-18       0.00000e+00       3.28704e-18
  33.5000000       3.30754e-18       0.00000e+00       3.30754e-18
  33.6000000       3.32845e-18       0.00000e+00       3.32845e-18
  33.7000000       3.34945e-18       0.00000e+00       3.34945e-18
  33.8000000       3.37046e-18       0.00000e+00       3.37046e-18
  33.9000000       3.39146e-18       0.00000e+00       3.39146e-18
  34.0000000       3.41246e-18       0.00000e+00       3.41246e-18
  34.1000000       3.43346e-18       0.00000e+00       3.43346e-18
  34.2000000       3.45447e-18       0.00000e+00       3.45447e-18
  34.3000000       3.47547e-18       0.00000e+00       3.47547e-18
  34.4000000       3.49648e-18       0.00000e+00       3.49648e-18
  34.5000000       3.51779e-18       0.00000e+00       3.51779e-18
  34.6000000       3.53933e-18       0.00000e+00       3.53933e-18
  34.7000000       3.56086e-18       0.00000e+00       3.56086e-18
  34.8000000       3.58240e-18       0.00000e+00       3.58240e-18
  34.9000000       3.60393e-18       0.00000e+00       3.60393e-18
  35.0000000       3.62547e-18       0.00000e+00       3.62547e-18
  35.1000000       3.64700e-18       0.00000e+00       3.64700e-18
  35.2000000       3.66853e-18       0.00000e+00       3.66853e-18
  35.3000000       3.69007e-18       0.00000e+00       3.69007e-18
  35.4000000       3.71162e-18       0.00000e+00       3.71162e-18
  35.5000000       3.73356e-18       0.00000e+00       3.73356e-18
  35.6000000       3.75566e-18       0.00000e+00       3.75566e-18
  35.7000000       3.77776e-18       0.00000e+00       3.77776e-18
  35.8000000       3.79986e-18       0.00000e+00       3.79986e-18
  35.9000000       3.82196e-18       0.00000e+00       3.82196e-18
  36.0000000       3.84406e-18       0.00000e+00       3.84406e-18
  36.1000000       3.86615e-18       0.00000e+00       3.86615e-18
  36.2000000       3.88825e-18       0.00000e+00       3.88825e-18
  36.3000000       3.91035e-18       0.00000e+00       3.91035e-18
  36.4000000       3.93245e-18       0.00000e+00       3.93245e-18
  36.5000000       3.95477e-18       0.00000e+00       3.95477e-18
  36.6000000       3.97749e-18       0.00000e+00       3.97749e-18
  36.7000000       4.00021e-18       0.00000e+00       4.00021e-18
  36.8000000       4.02294e-18       0.00000e+00       4.02294e-18
  36.9000000       4.04566e-18       0.00000e+00       4.04566e-18
  37.0000000       4.06839e-18       0.00000e+00       4.06839e-18
  37.1000000       4.09111e-18       0.00000e+00       4.09111e-18
  37.2000000       4.11384e-18       0.00000e+00       4.11384e-18
  37.3000000       4.13656e-18       0.00000e+00       4.13656e-18
  37.4000000       4.15929e-18       0.00000e+00       4.15929e-18
  37.5000000       4.18201e-18       0.00000e+00       4.18201e-18
  37.6000000       4.20492e-18       0.00000e+00       4.20492e-18
  37.7000000       4.22821e-18       0.00000e+00       4.22821e-18
  37.8000000       4.25152e-18       0.00000e+00       4.25152e-18
  37.9000000       4.27482e-18       0.00000e+00       4.27482e-18
  38.0000000       4.29813e-18       0.00000e+00       4.29813e-18
  38.1000000       4.32143e-18       0.00000e+00       4.32143e-18
  38.2000000       4.34474e-18       0.00000e+00       4.34474e-18
  38.3000000       4.36804e-18       0.00000e+00       4.36804e-18
  38.4000000       4.39135e-18       0.00000e+00       4.39135e-18
  38.5000000       4.41466e-18       0.00000e+00       4.41466e-18
  38.6000000       4.43796e-18       0.00000e+00       4.43796e-18
  38.7000000       4.46127e-18       0.00000e+00       4.46127e-18
  38.8000000       4.48493e-18       0.00000e+00       4.48493e-18
  38.9000000       4.50889e-18       0.00000e+00       4.50889e-18
  39.0000000       4.53285e-18       0.00000e+00       4.53285e-18
  39.1000000       4.55680e-18       0.00000e+00       4.55680e-18
  39.2000000       4.58076e-18       0.00000e+00       4.58076e-18
  39.3000000       4.60472e-18       0.00000e+00       4.60472e-18
  39.4000000       4.62868e-18       0.00000e+00       4.62868e-18
  39.5000000       4.65263e-18       0.00000e+00       4.65263e-18
  39.6000000       4.67659e-18       0.00000e+00       4.67659e-18
  39.7000000       4.70055e-18       0.00000e+00       4.70055e-18
  39.8000000       4.72451e-18       0.00000e+00       4.72451e-18
  39.9000000       4.74846e-18       0.00000e+00       4.74846e-18
  40.0000000       4.77252e-18       0.00000e+00       4.77252e-18
  40.1000000       4.79707e-18       0.00000e+00       4.79707e-18
  40.2000000       4.82169e-18       0.00000e+00       4.82169e-18
  40.3000000       4.84631e-18       0.00000e+00       4.84631e-18
  40.4000000       4.87093e-18       0.00000e+00       4.87093e-18
  40.5000000       4.89555e-18       0.00000e+00       4.89555e-18
  40.6000000       4.92017e-18       0.00000e+00       4.92017e-18
  40.7000000       4.94479e-18       0.00000e+00       4.94479e-18
  40.8000000       4.96941e-18       0.00000e+00       4.96941e-18
  40.9000000       4.99403e-18       0.00000e+00       4.99403e-18
  41.0000000       5.01864e-18       0.00000e+00       5.01864e-18
  41.1000000       5.04326e-18       0.00000e+00       5.04326e-18
  41.2000000       5.06788e-18       0.00000e+00       5.06788e-18
  41.3000000       5.09252e-18       0.00000e+00       5.09252e-18
  41.4000000       5.11762e-18       0.00000e+00       5.11762e-18
  41.5000000       5.14293e-18       0.00000e+00       5.14293e-18
  41.6000000       5.16824e-18       0.00000e+00       5.16824e-18
  41.7000000       5.19355e-18       0.00000e+00       5.19355e-18
  41.8000000       5.21887e-18       0.00000e+00       5.21887e-18
  41.9000000       5.24418e-18       0.00000e+00       5.24418e-18
  42.0000000       5.26949e-18       0.00000e+00       5.26949e-18
  42.1000000       5.29480e-18       0.00000e+00       5.29480e-18
  42.2000000       5.32011e-18       0.00000e+00       5.32011e-18
  42.3000000       5.34542e-18       0.00000e+00       5.34542e-18
  42.4000000       5.37074e-18       0.00000e+00       5.37074e-18
  42.5000000       5.39605e-18       0.00000e+00       5.39605e-18
  42.6000000       5.42136e-18       0.00000e+00       5.42136e-18
  42.7000000       5.44667e-18       0.00000e+00       5.44667e-18
  42.8000000       5.47231e-18       0.00000e+00       5.47231e-18
  42.9000000       5.49833e-18       0.00000e+00       5.49833e-18
  43.0000000       5.52435e-18       0.00000e+00       5.52435e-18
  43.1000000       5.55036e-18       0.00000e+00       5.55036e-18
  43.2000000       5.57638e-18       0.00000e+00       5.57638e-18
  43.3000000       5.60240e-18       0.00000e+00       5.60240e-18
  43.4000000       5.62841e-18       0.00000e+00       5.62841e-18
  43.5000000       5.65443e-18       0.00000e+00       5.65443e-18
  43.6000000       5.68045e-18       0.00000e+00       5.68045e-18
  43.7000000       5.70646e-18       0.00000e+00       5.70646e-18
  43.8000000       5.73248e-18       0.00000e+00       5.73248e-18
  43.9000000       5.75850e-18       0.00000e+00       5.75850e-18
  44.0000000       5.78452e-18       0.00000e+00       5.78452e-18
  44.1000000       5.81053e-18       0.00000e+00       5.81053e-18
  44.2000000       5.83655e-18       0.00000e+00       5.83655e-18
  44.3000000       5.86274e-18       0.00000e+00       5.86274e-18
  44.4000000       5.88945e-18       0.00000e+00       5.88945e-18
  44.5000000       5.91619e-18       0.00000e+00       5.91619e-18
  44.6000000       5.94293e-18       0.00000e+00       5.94293e-18
  44.7000000       5.96968e-18       0.00000e+00       5.96968e-18
  44.8000000       5.99642e-18       0.00000e+00       5.99642e-18
  44.9000000       6.02316e-18       0.00000e+00       6.02316e-18
  45.0000000       6.04990e-18       0.00000e+00       6.04990e-18
  45.1000000       6.07664e-18       0.00000e+00       6.07664e-18
  45.2000000       6.10338e-18       0.00000e+00       6.10338e-18
  45.3000000       6.13012e-18       0.00000e+00       6.13012e-18
  45.4000000       6.15686e-18       0.00000e+00       6.15686e-18
  45.5000000       6.18361e-18       0.00000e+00       6.18361e-18
  45.6000000       6.21035e-18       0.00000e+00       6.21035e-18
  45.7000000       6.23709e-18       0.00000e+00       6.23709e-18
  45.8000000       6.26383e-18       0.00000e+00       6.26383e-18
  45.9000000       6.29061e-18       0.00000e+00       6.29061e-18
  46.0000000       6.31792e-18       0.00000e+00       6.31792e-18
  46.1000000       6.34543e-18       0.00000e+00       6.34543e-18
  46.2000000       6.37294e-18       0.00000e+00       6.37294e-18
  46.3000000       6.40045e-18       0.00000e+00       6.40045e-18
  46.4000000       6.42796e-18       0.00000e+00       6.42796e-18
  46.5000000       6.45546e-18       0.00000e+00       6.45546e-18
  46.6000000       6.48297e-18       0.00000e+00       6.48297e-18
  46.7000000       6.51048e-18       0.00000e+00       6.51048e-18
  46.8000000       6.53799e-18       0.00000e+00       6.53799e-18
  46.9000000       6.56549e-18       0.00000e+00       6.56549e-18
  47.0000000       6.59300e-18       0.00000e+00       6.59300e-18
  47.1000000       6.62051e-18       0.00000e+00       6.62051e-18
  47.2000000       6.64802e-18       0.00000e+00       6.64802e-18
  47.3000000       6.67552e-18       0.00000e+00       6.67552e-18
  47.4000000       6.70303e-18       0.00000e+00       6.70303e-18
  47.5000000       6.73054e-18       0.00000e+00       6.73054e-18
  47.6000000       6.75805e-18       0.00000e+00       6.75805e-18
  47.7000000       6.78571e-18       0.00000e+00       6.78571e-18
  47.8000000       6.81392e-18       0.00000e+00       6.81392e-18
  47.9000000       6.84218e-18       0.00000e+00       6.84218e-18
  48.0000000       6.87044e-18       0.00000e+00       6.87044e-18
  48.1000000       6.89870e-18       0.00000e+00       6.89870e-18
  48.2000000       6.92696e-18       0.00000e+00       6.92696e-18
  48.3000000       6.95523e-18       0.00000e+00       6.95523e-18
  48.4000000       6.98349e-18       0.00000e+00       6.98349e-18
  48.5000000       7.01175e-18       0.00000e+00       7.01175e-18
  48.6000000       7.04001e-18       0.00000e+00       7.04001e-18
  48.7000000       7.06827e-18       0.00000e+00       7.06827e-18
  48.8000000       7.09653e-18       0.00000e+00       7.09653e-18
  48.9000000       7.12479e-18       0.00000e+00       7.12479e-18
  49.0000000       7.15305e-18       0.00000e+00       7.15305e-18
  49.1000000       7.18131e-18       0.00000e+00       7.18131e-18
  49.2000000       7.20957e-18       0.00000e+00       7.20957e-18
  49.3000000       7.23783e-18       0.00000e+00       7.23783e-18
  49.4000000       7.26610e-18       0.00000e+00       7.26610e-18
  49.5000000       7.29436e-18       0.00000e+00       7.29436e-18
  49.6000000       7.32274e-18       0.00000e+00       7.32274e-18
  49.7000000       7.35172e-18       0.00000e+00       7.35172e-18
  49.8000000       7.38077e-18       0.00000e+00       7.38077e-18
  49.9000000       7.40983e-18       0.00000e+00       7.40983e-18
  50.0000000       7.43888e-18       0.00000e+00       7.43888e-18
  50.1000000       7.46793e-18       0.00000e+00       7.46793e-18
  50.2000000       7.49699e-18       0.00000e+00       7.49699e-18
  50.3000000       7.52604e-18       0.00000e+00       7.52604e-18
  50.4000000       7.55509e-18       0.00000e+00       7.55509e-18
  50.5000000       7.58414e-18       0.00000e+00       7.58414e-18
  50.6000000       7.61320e-18       0.00000e+00       7.61320e-18
  50.7000000       7.64225e-18       0.00000e+00       7.64225e-18
  50.8000000       7.67130e-18       0.00000e+00       7.67130e-18
  50.9000000       7.70036e-18       0.00000e+00       7.70036e-18
  51.0000000       7.72941e-18       0.00000e+00       7.72941e-18
  51.1000000       7.75846e-18       0.00000e+00       7.75846e-18
  51.2000000       7.78752e-18       0.00000e+00       7.78752e-18
  51.3000000       7.81657e-18       0.00000e+00       7.81657e-18
  51.4000000       7.84562e-18       0.00000e+00       7.84562e-18
  51.5000000       7.87467e-18       0.00000e+00       7.87467e-18
  51.6000000       7.90373e-18       0.00000e+00       7.90373e-18
  51.7000000       7.93311e-18       0.00000e+00       7.93311e-18
  51.8000000       7.96297e-18       0.00000e+00       7.96297e-18
  51.9000000       7.99283e-18       0.00000e+00       7.99283e-18
  52.0000000       8.02269e-18       0.00000e+00       8.02269e-18
  52.1000000       8.05255e-18       0.00000e+00       8.05255e-18
  52.2000000       8.08242e-18       0.00000e+00       8.08242e-18
  52.3000000       8.11228e-18       0.00000e+00       8.11228e-18
  52.4000000       8.14214e-18       0.00000e+00       8.14214e-18
  52.5000000       8.17200e-18       0.00000e+00       8.17200e-18
  52.6000000       8.20186e-18       0.00000e+00       8.20186e-18
  52.7000000       8.23173e-18       0.00000e+00       8.23173e-18
  52.8000000       8.26159e-18       0.00000e+00       8.26159e-18
  52.9000000       8.29145e-18       0.00000e+00       8.29145e-18
  53.0000000       8.32131e-18       0.00000e+00       8.32131e-18
  53.1000000       8.35118e-18       0.00000e+00       8.35118e-18
  53.2000000       8.38104e-18       0.00000e+00       8.38104e-18
  53.3000000       8.41090e-18       0.00000e+00       8.41090e-18
  53.4000000       8.44076e-18       0.00000e+00       8.44076e-18
  53.5000000       8.47063e-18       0.00000e+00       8.47063e-18
  53.6000000       8.50049e-18       0.00000e+00       8.50049e-18
  53.7000000       8.53035e-18       0.00000e+00       8.53035e-18
  53.8000000       8.56021e-18       0.00000e+00       8.56021e-18
  53.9000000       8.59015e-18       0.00000e+00       8.59015e-18
  54.0000000       8.62068e-18       0.00000e+00       8.62068e-18
