# CN cross sections
# Alan Heays 2016-03-28
# References: el-qadi2013
# photoabsorption   -- Photoabsorption cross section (cm2)
# photodissociation -- Photodissociation cross section (cm2)
# photoionisation   -- Photoionisation cross section (cm2)
# 
# wavelength   photoabsorption photodissociation   photoionisation
  82.7000000       6.42108e-18       0.00000e+00       6.42108e-18
  82.8000000       6.60344e-18       0.00000e+00       6.60344e-18
  82.9000000       6.84617e-18       0.00000e+00       6.84617e-18
  83.0000000       7.08804e-18       0.00000e+00       7.08804e-18
  83.1000000       7.33031e-18       0.00000e+00       7.33031e-18
  83.2000000       7.64169e-18       0.00000e+00       7.64169e-18
  83.3000000       7.97261e-18       0.00000e+00       7.97261e-18
  83.4000000       8.30420e-18       0.00000e+00       8.30420e-18
  83.5000000       8.63442e-18       0.00000e+00       8.63442e-18
  83.6000000       8.95956e-18       0.00000e+00       8.95956e-18
  83.7000000       9.30124e-18       0.00000e+00       9.30124e-18
  83.8000000       9.73929e-18       0.00000e+00       9.73929e-18
  83.9000000       1.01906e-17       0.00000e+00       1.01906e-17
  84.0000000       1.06368e-17       0.00000e+00       1.06368e-17
  84.1000000       1.10832e-17       0.00000e+00       1.10832e-17
  84.2000000       1.15313e-17       0.00000e+00       1.15313e-17
  84.3000000       1.20314e-17       0.00000e+00       1.20314e-17
  84.4000000       1.26277e-17       0.00000e+00       1.26277e-17
  84.5000000       1.32243e-17       0.00000e+00       1.32243e-17
  84.6000000       1.38195e-17       0.00000e+00       1.38195e-17
  84.7000000       1.44134e-17       0.00000e+00       1.44134e-17
  84.8000000       1.50124e-17       0.00000e+00       1.50124e-17
  84.9000000       1.57332e-17       0.00000e+00       1.57332e-17
  85.0000000       1.65010e-17       0.00000e+00       1.65010e-17
  85.1000000       1.72668e-17       0.00000e+00       1.72668e-17
  85.2000000       1.80303e-17       0.00000e+00       1.80303e-17
  85.3000000       1.87921e-17       0.00000e+00       1.87921e-17
  85.4000000       1.96279e-17       0.00000e+00       1.96279e-17
  85.5000000       2.05674e-17       0.00000e+00       2.05674e-17
  85.6000000       2.15105e-17       0.00000e+00       2.15105e-17
  85.7000000       2.24584e-17       0.00000e+00       2.24584e-17
  85.8000000       2.34041e-17       0.00000e+00       2.34041e-17
  85.9000000       2.43904e-17       0.00000e+00       2.43904e-17
  86.0000000       2.54997e-17       0.00000e+00       2.54997e-17
  86.1000000       2.66149e-17       0.00000e+00       2.66149e-17
  86.2000000       2.77287e-17       0.00000e+00       2.77287e-17
  86.3000000       2.88521e-17       0.00000e+00       2.88521e-17
  86.4000000       3.00084e-17       0.00000e+00       3.00084e-17
  86.5000000       3.12778e-17       0.00000e+00       3.12778e-17
  86.6000000       3.25586e-17       0.00000e+00       3.25586e-17
  86.7000000       3.38367e-17       0.00000e+00       3.38367e-17
  86.8000000       3.51118e-17       0.00000e+00       3.51118e-17
  86.9000000       3.64179e-17       0.00000e+00       3.64179e-17
  87.0000000       3.78405e-17       0.00000e+00       3.78405e-17
  87.1000000       3.92717e-17       0.00000e+00       3.92717e-17
  87.2000000       4.07017e-17       0.00000e+00       4.07017e-17
  87.3000000       4.21289e-17       6.69301e-18       3.54359e-17
  87.4000000       4.35838e-17       4.35838e-17       0.00000e+00
  87.5000000       4.51185e-17       4.51185e-17       0.00000e+00
  87.6000000       4.66792e-17       4.66792e-17       0.00000e+00
  87.7000000       4.82407e-17       4.82407e-17       0.00000e+00
  87.8000000       4.97997e-17       4.97997e-17       0.00000e+00
  87.9000000       5.13862e-17       5.13862e-17       0.00000e+00
  88.0000000       5.30045e-17       5.30045e-17       0.00000e+00
  88.1000000       5.46411e-17       5.46411e-17       0.00000e+00
  88.2000000       5.62975e-17       5.62975e-17       0.00000e+00
  88.3000000       5.79514e-17       5.79514e-17       0.00000e+00
  88.4000000       5.96085e-17       5.96085e-17       0.00000e+00
  88.5000000       6.12643e-17       6.12643e-17       0.00000e+00
  88.6000000       6.29345e-17       6.29345e-17       0.00000e+00
  88.7000000       6.46367e-17       6.46367e-17       0.00000e+00
  88.8000000       6.63195e-17       6.63195e-17       0.00000e+00
  88.9000000       6.79588e-17       6.79588e-17       0.00000e+00
  89.0000000       6.95941e-17       6.95941e-17       0.00000e+00
  89.1000000       7.12529e-17       7.12529e-17       0.00000e+00
  89.2000000       7.29346e-17       7.29346e-17       0.00000e+00
  89.3000000       7.45101e-17       7.45101e-17       0.00000e+00
  89.4000000       7.60518e-17       7.60518e-17       0.00000e+00
  89.5000000       7.75959e-17       7.75959e-17       0.00000e+00
  89.6000000       7.91832e-17       7.91832e-17       0.00000e+00
  89.7000000       8.06568e-17       8.06568e-17       0.00000e+00
  89.8000000       8.20182e-17       8.20182e-17       0.00000e+00
  89.9000000       8.33770e-17       8.33770e-17       0.00000e+00
  90.0000000       8.47747e-17       8.47747e-17       0.00000e+00
  90.1000000       8.60861e-17       8.60861e-17       0.00000e+00
  90.2000000       8.71967e-17       8.71967e-17       0.00000e+00
  90.3000000       8.83013e-17       8.83013e-17       0.00000e+00
  90.4000000       8.94436e-17       8.94436e-17       0.00000e+00
  90.5000000       9.05002e-17       9.05002e-17       0.00000e+00
  90.6000000       9.12966e-17       9.12966e-17       0.00000e+00
  90.7000000       9.20842e-17       9.20842e-17       0.00000e+00
  90.8000000       9.29104e-17       9.29104e-17       0.00000e+00
  90.9000000       9.36197e-17       9.36197e-17       0.00000e+00
  91.0000000       9.40457e-17       9.40457e-17       0.00000e+00
  91.1000000       9.44724e-17       9.44724e-17       0.00000e+00
  91.2000000       9.49173e-17       9.49173e-17       0.00000e+00
  91.3000000       9.51849e-17       9.51849e-17       0.00000e+00
  91.4000000       9.51990e-17       9.51990e-17       0.00000e+00
  91.5000000       9.52240e-17       9.52240e-17       0.00000e+00
  91.6000000       9.52465e-17       9.52465e-17       0.00000e+00
  91.7000000       9.50094e-17       9.50094e-17       0.00000e+00
  91.8000000       9.46291e-17       9.46291e-17       0.00000e+00
  91.9000000       9.42540e-17       9.42540e-17       0.00000e+00
  92.0000000       9.38447e-17       9.38447e-17       0.00000e+00
  92.1000000       9.31816e-17       9.31816e-17       0.00000e+00
  92.2000000       9.24705e-17       9.24705e-17       0.00000e+00
  92.3000000       9.17775e-17       9.17775e-17       0.00000e+00
  92.4000000       9.10065e-17       9.10065e-17       0.00000e+00
  92.5000000       9.00340e-17       9.00340e-17       0.00000e+00
  92.6000000       8.91321e-17       8.91321e-17       0.00000e+00
  92.7000000       8.82531e-17       8.82531e-17       0.00000e+00
  92.8000000       8.72488e-17       8.72488e-17       0.00000e+00
  92.9000000       8.63101e-17       8.63101e-17       0.00000e+00
  93.0000000       8.54105e-17       8.54105e-17       0.00000e+00
  93.1000000       8.44785e-17       8.44785e-17       0.00000e+00
  93.2000000       8.32488e-17       8.32488e-17       0.00000e+00
  93.3000000       8.17019e-17       8.17019e-17       0.00000e+00
  93.4000000       7.94139e-17       7.94139e-17       0.00000e+00
  93.5000000       7.59840e-17       7.59840e-17       0.00000e+00
  93.6000000       7.13570e-17       7.13570e-17       0.00000e+00
  93.7000000       6.61152e-17       6.61152e-17       0.00000e+00
  93.8000000       6.10931e-17       6.10931e-17       0.00000e+00
  93.9000000       5.66178e-17       5.66178e-17       0.00000e+00
  94.0000000       5.26227e-17       5.26227e-17       0.00000e+00
  94.1000000       4.90637e-17       4.90637e-17       0.00000e+00
  94.2000000       4.58031e-17       4.58031e-17       0.00000e+00
  94.3000000       4.21871e-17       4.21871e-17       0.00000e+00
  94.4000000       3.66889e-17       3.66889e-17       0.00000e+00
  94.5000000       3.07409e-17       3.07409e-17       0.00000e+00
  94.6000000       2.82297e-17       2.82297e-17       0.00000e+00
  94.7000000       2.63777e-17       2.63777e-17       0.00000e+00
  94.8000000       2.46042e-17       2.46042e-17       0.00000e+00
  94.9000000       2.28270e-17       2.28270e-17       0.00000e+00
  95.0000000       2.11650e-17       2.11650e-17       0.00000e+00
  95.1000000       1.95939e-17       1.95939e-17       0.00000e+00
  95.2000000       1.80276e-17       1.80276e-17       0.00000e+00
  95.3000000       1.65974e-17       1.65974e-17       0.00000e+00
  95.4000000       1.52595e-17       1.52595e-17       0.00000e+00
  95.5000000       1.39239e-17       1.39239e-17       0.00000e+00
  95.6000000       1.27333e-17       1.27333e-17       0.00000e+00
  95.7000000       1.16210e-17       1.16210e-17       0.00000e+00
  95.8000000       1.05178e-17       1.05178e-17       0.00000e+00
  95.9000000       9.56952e-18       9.56952e-18       0.00000e+00
  96.0000000       8.68350e-18       8.68350e-18       0.00000e+00
  96.1000000       7.80961e-18       7.80961e-18       0.00000e+00
  96.2000000       7.08467e-18       7.08467e-18       0.00000e+00
  96.3000000       6.40740e-18       6.40740e-18       0.00000e+00
  96.4000000       5.74527e-18       5.74527e-18       0.00000e+00
  96.5000000       5.21462e-18       5.21462e-18       0.00000e+00
  96.6000000       4.71921e-18       4.71921e-18       0.00000e+00
  96.7000000       4.23803e-18       4.23803e-18       0.00000e+00
  96.8000000       3.86671e-18       3.86671e-18       0.00000e+00
  96.9000000       3.52285e-18       3.52285e-18       0.00000e+00
  97.0000000       3.19294e-18       3.19294e-18       0.00000e+00
  97.1000000       2.94954e-18       2.94954e-18       0.00000e+00
  97.2000000       2.72558e-18       2.72558e-18       0.00000e+00
  97.3000000       2.50875e-18       2.50875e-18       0.00000e+00
  97.4000000       2.35430e-18       2.35430e-18       0.00000e+00
  97.5000000       2.21738e-18       2.21738e-18       0.00000e+00
  97.6000000       2.08420e-18       2.08420e-18       0.00000e+00
  97.7000000       1.98948e-18       1.98948e-18       0.00000e+00
  97.8000000       1.91468e-18       1.91468e-18       0.00000e+00
  97.9000000       1.84478e-18       1.84478e-18       0.00000e+00
  98.0000000       1.80021e-18       1.80021e-18       0.00000e+00
  98.1000000       1.77140e-18       1.77140e-18       0.00000e+00
  98.2000000       1.74236e-18       1.74236e-18       0.00000e+00
  98.3000000       1.72136e-18       1.72136e-18       0.00000e+00
  98.4000000       1.71414e-18       1.71414e-18       0.00000e+00
  98.5000000       1.70923e-18       1.70923e-18       0.00000e+00
  98.6000000       1.71290e-18       1.71290e-18       0.00000e+00
  98.7000000       1.72925e-18       1.72925e-18       0.00000e+00
  98.8000000       1.74828e-18       1.74828e-18       0.00000e+00
  98.9000000       1.76849e-18       1.76849e-18       0.00000e+00
  99.0000000       1.79219e-18       1.79219e-18       0.00000e+00
  99.1000000       1.82100e-18       1.82100e-18       0.00000e+00
  99.2000000       1.85035e-18       1.85035e-18       0.00000e+00
  99.3000000       1.88461e-18       1.88461e-18       0.00000e+00
  99.4000000       1.92181e-18       1.92181e-18       0.00000e+00
  99.5000000       1.96095e-18       1.96095e-18       0.00000e+00
  99.6000000       2.00437e-18       2.00437e-18       0.00000e+00
  99.7000000       2.04966e-18       2.04966e-18       0.00000e+00
  99.8000000       2.09498e-18       2.09498e-18       0.00000e+00
  99.9000000       2.14081e-18       2.14081e-18       0.00000e+00
 100.0000000       2.18809e-18       2.18809e-18       0.00000e+00
 100.1000000       2.23834e-18       2.23834e-18       0.00000e+00
 100.2000000       2.28944e-18       2.28944e-18       0.00000e+00
 100.3000000       2.34506e-18       2.34506e-18       0.00000e+00
 100.4000000       2.40448e-18       2.40448e-18       0.00000e+00
 100.5000000       2.46419e-18       2.46419e-18       0.00000e+00
 100.6000000       2.52416e-18       2.52416e-18       0.00000e+00
 100.7000000       2.58407e-18       2.58407e-18       0.00000e+00
 100.8000000       2.64603e-18       2.64603e-18       0.00000e+00
 100.9000000       2.70901e-18       2.70901e-18       0.00000e+00
 101.0000000       2.77234e-18       2.77234e-18       0.00000e+00
 101.1000000       2.84391e-18       2.84391e-18       0.00000e+00
 101.2000000       2.91844e-18       2.91844e-18       0.00000e+00
 101.3000000       2.99284e-18       2.99284e-18       0.00000e+00
 101.4000000       3.06721e-18       3.06721e-18       0.00000e+00
 101.5000000       3.14262e-18       3.14262e-18       0.00000e+00
 101.6000000       3.21981e-18       3.21981e-18       0.00000e+00
 101.7000000       3.29701e-18       3.29701e-18       0.00000e+00
 101.8000000       3.38015e-18       3.38015e-18       0.00000e+00
 101.9000000       3.47532e-18       3.47532e-18       0.00000e+00
 102.0000000       3.57068e-18       3.57068e-18       0.00000e+00
 102.1000000       3.66586e-18       3.66586e-18       0.00000e+00
 102.2000000       3.76063e-18       3.76063e-18       0.00000e+00
 102.3000000       3.85506e-18       3.85506e-18       0.00000e+00
 102.4000000       3.94932e-18       3.94932e-18       0.00000e+00
 102.5000000       4.04945e-18       4.04945e-18       0.00000e+00
 102.6000000       4.17235e-18       4.17235e-18       0.00000e+00
 102.7000000       4.29897e-18       4.29897e-18       0.00000e+00
 102.8000000       4.42522e-18       4.42522e-18       0.00000e+00
 102.9000000       4.54928e-18       4.54928e-18       0.00000e+00
 103.0000000       4.67247e-18       4.67247e-18       0.00000e+00
 103.1000000       4.79543e-18       4.79543e-18       0.00000e+00
 103.2000000       4.93409e-18       4.93409e-18       0.00000e+00
 103.3000000       5.10424e-18       5.10424e-18       0.00000e+00
 103.4000000       5.27499e-18       5.27499e-18       0.00000e+00
 103.5000000       5.44418e-18       5.44418e-18       0.00000e+00
 103.6000000       5.61202e-18       5.61202e-18       0.00000e+00
 103.7000000       5.78863e-18       5.78863e-18       0.00000e+00
 103.8000000       5.97111e-18       5.97111e-18       0.00000e+00
 103.9000000       6.20691e-18       6.20691e-18       0.00000e+00
 104.0000000       6.45623e-18       6.45623e-18       0.00000e+00
 104.1000000       6.70478e-18       6.70478e-18       0.00000e+00
 104.2000000       6.94748e-18       6.94748e-18       0.00000e+00
 104.3000000       7.18764e-18       7.18764e-18       0.00000e+00
 104.4000000       7.43345e-18       7.43345e-18       0.00000e+00
 104.5000000       7.73570e-18       7.73570e-18       0.00000e+00
 104.6000000       8.07916e-18       8.07916e-18       0.00000e+00
 104.7000000       8.43968e-18       8.43968e-18       0.00000e+00
 104.8000000       8.79443e-18       8.79443e-18       0.00000e+00
 104.9000000       9.14374e-18       9.14374e-18       0.00000e+00
 105.0000000       9.50337e-18       9.50337e-18       0.00000e+00
 105.1000000       9.88953e-18       9.88953e-18       0.00000e+00
 105.2000000       1.02763e-17       1.02763e-17       0.00000e+00
 105.3000000       1.06623e-17       1.06623e-17       0.00000e+00
 105.4000000       1.10458e-17       1.10458e-17       0.00000e+00
 105.5000000       1.14801e-17       1.14801e-17       0.00000e+00
 105.6000000       1.19122e-17       1.19122e-17       0.00000e+00
 105.7000000       1.23334e-17       1.23334e-17       0.00000e+00
 105.8000000       1.27538e-17       1.27538e-17       0.00000e+00
 105.9000000       1.31734e-17       1.31734e-17       0.00000e+00
 106.0000000       1.35856e-17       1.35856e-17       0.00000e+00
 106.1000000       1.39640e-17       1.39640e-17       0.00000e+00
 106.2000000       1.42567e-17       1.42567e-17       0.00000e+00
 106.3000000       1.45618e-17       1.45618e-17       0.00000e+00
 106.4000000       1.49145e-17       1.49145e-17       0.00000e+00
 106.5000000       1.52682e-17       1.52682e-17       0.00000e+00
 106.6000000       1.56124e-17       1.56124e-17       0.00000e+00
 106.7000000       1.59024e-17       1.59024e-17       0.00000e+00
 106.8000000       1.61071e-17       1.61071e-17       0.00000e+00
 106.9000000       1.63099e-17       1.63099e-17       0.00000e+00
 107.0000000       1.65122e-17       1.65122e-17       0.00000e+00
 107.1000000       1.67109e-17       1.67109e-17       0.00000e+00
 107.2000000       1.68862e-17       1.68862e-17       0.00000e+00
 107.3000000       1.70402e-17       1.70402e-17       0.00000e+00
 107.4000000       1.71448e-17       1.71448e-17       0.00000e+00
 107.5000000       1.72431e-17       1.72431e-17       0.00000e+00
 107.6000000       1.73408e-17       1.73408e-17       0.00000e+00
 107.7000000       1.74301e-17       1.74301e-17       0.00000e+00
 107.8000000       1.75164e-17       1.75164e-17       0.00000e+00
 107.9000000       1.76026e-17       1.76026e-17       0.00000e+00
 108.0000000       1.76889e-17       1.76889e-17       0.00000e+00
 108.1000000       1.77224e-17       1.77224e-17       0.00000e+00
 108.2000000       1.76831e-17       1.76831e-17       0.00000e+00
 108.3000000       1.76390e-17       1.76390e-17       0.00000e+00
 108.4000000       1.75950e-17       1.75950e-17       0.00000e+00
 108.5000000       1.75511e-17       1.75511e-17       0.00000e+00
 108.6000000       1.75086e-17       1.75086e-17       0.00000e+00
 108.7000000       1.75014e-17       1.75014e-17       0.00000e+00
 108.8000000       1.75075e-17       1.75075e-17       0.00000e+00
 108.9000000       1.75135e-17       1.75135e-17       0.00000e+00
 109.0000000       1.75195e-17       1.75195e-17       0.00000e+00
 109.1000000       1.74925e-17       1.74925e-17       0.00000e+00
 109.2000000       1.73825e-17       1.73825e-17       0.00000e+00
 109.3000000       1.73715e-17       1.73715e-17       0.00000e+00
 109.4000000       1.74745e-17       1.74745e-17       0.00000e+00
 109.5000000       1.75775e-17       1.75775e-17       0.00000e+00
 109.6000000       1.76802e-17       1.76802e-17       0.00000e+00
 109.7000000       1.77803e-17       1.77803e-17       0.00000e+00
 109.8000000       1.80587e-17       1.80587e-17       0.00000e+00
 109.9000000       1.90036e-17       1.90036e-17       0.00000e+00
 110.0000000       2.00104e-17       2.00104e-17       0.00000e+00
 110.1000000       2.10152e-17       2.10152e-17       0.00000e+00
 110.2000000       2.29822e-17       2.29822e-17       0.00000e+00
 110.3000000       2.84664e-17       2.84664e-17       0.00000e+00
 110.4000000       3.50849e-17       3.50849e-17       0.00000e+00
 110.5000000       6.39618e-17       6.39618e-17       0.00000e+00
 110.6000000       1.99172e-16       1.99172e-16       0.00000e+00
 110.7000000       1.22987e-16       1.22987e-16       0.00000e+00
 110.8000000       8.05230e-17       8.05230e-17       0.00000e+00
 110.9000000       6.67072e-17       6.67072e-17       0.00000e+00
 111.0000000       5.78724e-17       5.78724e-17       0.00000e+00
 111.1000000       5.27999e-17       5.27999e-17       0.00000e+00
 111.2000000       4.87090e-17       4.87090e-17       0.00000e+00
 111.3000000       4.61158e-17       4.61158e-17       0.00000e+00
 111.4000000       4.39484e-17       4.39484e-17       0.00000e+00
 111.5000000       4.30539e-17       4.30539e-17       0.00000e+00
 111.6000000       4.26325e-17       4.26325e-17       0.00000e+00
 111.7000000       4.38035e-17       4.38035e-17       0.00000e+00
 111.8000000       4.62113e-17       4.62113e-17       0.00000e+00
 111.9000000       5.10194e-17       5.10194e-17       0.00000e+00
