# Cross sections for Cr
# Converted from earlier Leiden database cross sections by Alan Heays 2016-02-24
# Photoionisation source: Cr  PHOTOIONIZATION
# Lines represented with lorentzian of width 0.0005 nm FWHM
# wavelength: (nm)
# photoabsorption:    cross section (cm2)
# photoionisation:    cross section (cm2)
# 
# wavelength   photoabsorption   photoionisation
  91.3000000       7.49939e-18       7.49939e-18
  91.4000000       7.49902e-18       7.49902e-18
  91.5000000       7.49854e-18       7.49854e-18
  91.6000000       7.49805e-18       7.49805e-18
  91.7000000       7.49756e-18       7.49756e-18
  91.8000000       7.49707e-18       7.49707e-18
  91.9000000       7.49658e-18       7.49658e-18
  92.0000000       7.49610e-18       7.49610e-18
  92.1000000       7.49561e-18       7.49561e-18
  92.2000000       7.49512e-18       7.49512e-18
  92.3000000       7.49463e-18       7.49463e-18
  92.4000000       7.49414e-18       7.49414e-18
  92.5000000       7.49366e-18       7.49366e-18
  92.6000000       7.49317e-18       7.49317e-18
  92.7000000       7.49268e-18       7.49268e-18
  92.8000000       7.49219e-18       7.49219e-18
  92.9000000       7.49170e-18       7.49170e-18
  93.0000000       7.49122e-18       7.49122e-18
  93.1000000       7.49073e-18       7.49073e-18
  93.2000000       7.49024e-18       7.49024e-18
  93.3000000       7.48975e-18       7.48975e-18
  93.4000000       7.48927e-18       7.48927e-18
  93.5000000       7.48878e-18       7.48878e-18
  93.6000000       7.48829e-18       7.48829e-18
  93.7000000       7.48780e-18       7.48780e-18
  93.8000000       7.48731e-18       7.48731e-18
  93.9000000       7.48683e-18       7.48683e-18
  94.0000000       7.48634e-18       7.48634e-18
  94.1000000       7.48585e-18       7.48585e-18
  94.2000000       7.48536e-18       7.48536e-18
  94.3000000       7.48487e-18       7.48487e-18
  94.4000000       7.48439e-18       7.48439e-18
  94.5000000       7.48390e-18       7.48390e-18
  94.6000000       7.48341e-18       7.48341e-18
  94.7000000       7.48292e-18       7.48292e-18
  94.8000000       7.48243e-18       7.48243e-18
  94.9000000       7.48195e-18       7.48195e-18
  95.0000000       7.48146e-18       7.48146e-18
  95.1000000       7.48097e-18       7.48097e-18
  95.2000000       7.48048e-18       7.48048e-18
  95.3000000       7.47999e-18       7.47999e-18
  95.4000000       7.47951e-18       7.47951e-18
  95.5000000       7.47902e-18       7.47902e-18
  95.6000000       7.47853e-18       7.47853e-18
  95.7000000       7.47804e-18       7.47804e-18
  95.8000000       7.47755e-18       7.47755e-18
  95.9000000       7.47707e-18       7.47707e-18
  96.0000000       7.47658e-18       7.47658e-18
  96.1000000       7.47609e-18       7.47609e-18
  96.2000000       7.47560e-18       7.47560e-18
  96.3000000       7.47511e-18       7.47511e-18
  96.4000000       7.47463e-18       7.47463e-18
  96.5000000       7.47414e-18       7.47414e-18
  96.6000000       7.47365e-18       7.47365e-18
  96.7000000       7.47316e-18       7.47316e-18
  96.8000000       7.47267e-18       7.47267e-18
  96.9000000       7.47219e-18       7.47219e-18
  97.0000000       7.47170e-18       7.47170e-18
  97.1000000       7.47121e-18       7.47121e-18
  97.2000000       7.47072e-18       7.47072e-18
  97.3000000       7.47023e-18       7.47023e-18
  97.4000000       7.46975e-18       7.46975e-18
  97.5000000       7.46926e-18       7.46926e-18
  97.6000000       7.46877e-18       7.46877e-18
  97.7000000       7.46828e-18       7.46828e-18
  97.8000000       7.46780e-18       7.46780e-18
  97.9000000       7.46731e-18       7.46731e-18
  98.0000000       7.46682e-18       7.46682e-18
  98.1000000       7.46633e-18       7.46633e-18
  98.2000000       7.46584e-18       7.46584e-18
  98.3000000       7.46536e-18       7.46536e-18
  98.4000000       7.46487e-18       7.46487e-18
  98.5000000       7.46438e-18       7.46438e-18
  98.6000000       7.46389e-18       7.46389e-18
  98.7000000       7.46340e-18       7.46340e-18
  98.8000000       7.46292e-18       7.46292e-18
  98.9000000       7.46243e-18       7.46243e-18
  99.0000000       7.46194e-18       7.46194e-18
  99.1000000       7.46145e-18       7.46145e-18
  99.2000000       7.46096e-18       7.46096e-18
  99.3000000       7.46048e-18       7.46048e-18
  99.4000000       7.45999e-18       7.45999e-18
  99.5000000       7.45950e-18       7.45950e-18
  99.6000000       7.45901e-18       7.45901e-18
  99.7000000       7.45852e-18       7.45852e-18
  99.8000000       7.45804e-18       7.45804e-18
  99.9000000       7.45755e-18       7.45755e-18
 100.0000000       7.45706e-18       7.45706e-18
 100.1000000       7.45657e-18       7.45657e-18
 100.2000000       7.45608e-18       7.45608e-18
 100.3000000       7.45560e-18       7.45560e-18
 100.4000000       7.45511e-18       7.45511e-18
 100.5000000       7.45462e-18       7.45462e-18
 100.6000000       7.45413e-18       7.45413e-18
 100.7000000       7.45364e-18       7.45364e-18
 100.8000000       7.45316e-18       7.45316e-18
 100.9000000       7.45267e-18       7.45267e-18
 101.0000000       7.45218e-18       7.45218e-18
 101.1000000       7.45169e-18       7.45169e-18
 101.2000000       7.45120e-18       7.45120e-18
 101.3000000       7.45072e-18       7.45072e-18
 101.4000000       7.45023e-18       7.45023e-18
 101.5000000       7.44974e-18       7.44974e-18
 101.6000000       7.44925e-18       7.44925e-18
 101.7000000       7.44876e-18       7.44876e-18
 101.8000000       7.44828e-18       7.44828e-18
 101.9000000       7.44779e-18       7.44779e-18
 102.0000000       7.44730e-18       7.44730e-18
 102.1000000       7.44681e-18       7.44681e-18
 102.2000000       7.44633e-18       7.44633e-18
 102.3000000       7.44584e-18       7.44584e-18
 102.4000000       7.44535e-18       7.44535e-18
 102.5000000       7.44486e-18       7.44486e-18
 102.6000000       7.44437e-18       7.44437e-18
 102.7000000       7.44389e-18       7.44389e-18
 102.8000000       7.44340e-18       7.44340e-18
 102.9000000       7.44291e-18       7.44291e-18
 103.0000000       7.44242e-18       7.44242e-18
 103.1000000       7.44193e-18       7.44193e-18
 103.2000000       7.44145e-18       7.44145e-18
 103.3000000       7.44096e-18       7.44096e-18
 103.4000000       7.44047e-18       7.44047e-18
 103.5000000       7.43998e-18       7.43998e-18
 103.6000000       7.43949e-18       7.43949e-18
 103.7000000       7.43901e-18       7.43901e-18
 103.8000000       7.43852e-18       7.43852e-18
 103.9000000       7.43803e-18       7.43803e-18
 104.0000000       7.43754e-18       7.43754e-18
 104.1000000       7.43705e-18       7.43705e-18
 104.2000000       7.43657e-18       7.43657e-18
 104.3000000       7.43608e-18       7.43608e-18
 104.4000000       7.43559e-18       7.43559e-18
 104.5000000       7.43510e-18       7.43510e-18
 104.6000000       7.43461e-18       7.43461e-18
 104.7000000       7.43413e-18       7.43413e-18
 104.8000000       7.43364e-18       7.43364e-18
 104.9000000       7.43315e-18       7.43315e-18
 105.0000000       7.43266e-18       7.43266e-18
 105.1000000       7.43217e-18       7.43217e-18
 105.2000000       7.43169e-18       7.43169e-18
 105.3000000       7.43120e-18       7.43120e-18
 105.4000000       7.43071e-18       7.43071e-18
 105.5000000       7.43022e-18       7.43022e-18
 105.6000000       7.42973e-18       7.42973e-18
 105.7000000       7.42925e-18       7.42925e-18
 105.8000000       7.42876e-18       7.42876e-18
 105.9000000       7.42827e-18       7.42827e-18
 106.0000000       7.42778e-18       7.42778e-18
 106.1000000       7.42729e-18       7.42729e-18
 106.2000000       7.42681e-18       7.42681e-18
 106.3000000       7.42632e-18       7.42632e-18
 106.4000000       7.42583e-18       7.42583e-18
 106.5000000       7.42534e-18       7.42534e-18
 106.6000000       7.42486e-18       7.42486e-18
 106.7000000       7.42437e-18       7.42437e-18
 106.8000000       7.42388e-18       7.42388e-18
 106.9000000       7.42339e-18       7.42339e-18
 107.0000000       7.42290e-18       7.42290e-18
 107.1000000       7.42242e-18       7.42242e-18
 107.2000000       7.42193e-18       7.42193e-18
 107.3000000       7.42144e-18       7.42144e-18
 107.4000000       7.42095e-18       7.42095e-18
 107.5000000       7.42046e-18       7.42046e-18
 107.6000000       7.41998e-18       7.41998e-18
 107.7000000       7.41949e-18       7.41949e-18
 107.8000000       7.41900e-18       7.41900e-18
 107.9000000       7.41851e-18       7.41851e-18
 108.0000000       7.41802e-18       7.41802e-18
 108.1000000       7.41754e-18       7.41754e-18
 108.2000000       7.41705e-18       7.41705e-18
 108.3000000       7.41656e-18       7.41656e-18
 108.4000000       7.41607e-18       7.41607e-18
 108.5000000       7.41558e-18       7.41558e-18
 108.6000000       7.41510e-18       7.41510e-18
 108.7000000       7.41461e-18       7.41461e-18
 108.8000000       7.41412e-18       7.41412e-18
 108.9000000       7.41363e-18       7.41363e-18
 109.0000000       7.41314e-18       7.41314e-18
 109.1000000       7.41266e-18       7.41266e-18
 109.2000000       7.41217e-18       7.41217e-18
 109.3000000       7.41168e-18       7.41168e-18
 109.4000000       7.41119e-18       7.41119e-18
 109.5000000       7.41070e-18       7.41070e-18
 109.6000000       7.41022e-18       7.41022e-18
 109.7000000       7.40973e-18       7.40973e-18
 109.8000000       7.40924e-18       7.40924e-18
 109.9000000       7.40875e-18       7.40875e-18
 110.0000000       7.40826e-18       7.40826e-18
 110.1000000       7.40778e-18       7.40778e-18
 110.2000000       7.40729e-18       7.40729e-18
 110.3000000       7.40680e-18       7.40680e-18
 110.4000000       7.40631e-18       7.40631e-18
 110.5000000       7.40582e-18       7.40582e-18
 110.6000000       7.40534e-18       7.40534e-18
 110.7000000       7.40485e-18       7.40485e-18
 110.8000000       7.40436e-18       7.40436e-18
 110.9000000       7.40387e-18       7.40387e-18
 111.0000000       7.40339e-18       7.40339e-18
 111.1000000       7.40290e-18       7.40290e-18
 111.2000000       7.40241e-18       7.40241e-18
 111.3000000       7.40192e-18       7.40192e-18
 111.4000000       7.40143e-18       7.40143e-18
 111.5000000       7.40095e-18       7.40095e-18
 111.6000000       7.40046e-18       7.40046e-18
 111.7000000       7.39997e-18       7.39997e-18
 111.8000000       7.39948e-18       7.39948e-18
 111.9000000       7.39899e-18       7.39899e-18
 112.0000000       7.39851e-18       7.39851e-18
 112.1000000       7.39802e-18       7.39802e-18
 112.2000000       7.39753e-18       7.39753e-18
 112.3000000       7.39704e-18       7.39704e-18
 112.4000000       7.39655e-18       7.39655e-18
 112.5000000       7.39607e-18       7.39607e-18
 112.6000000       7.39558e-18       7.39558e-18
 112.7000000       7.39509e-18       7.39509e-18
 112.8000000       7.39460e-18       7.39460e-18
 112.9000000       7.39411e-18       7.39411e-18
 113.0000000       7.39363e-18       7.39363e-18
 113.1000000       7.39314e-18       7.39314e-18
 113.2000000       7.39265e-18       7.39265e-18
 113.3000000       7.39216e-18       7.39216e-18
 113.4000000       7.39167e-18       7.39167e-18
 113.5000000       7.39119e-18       7.39119e-18
 113.6000000       7.39070e-18       7.39070e-18
 113.7000000       7.39021e-18       7.39021e-18
 113.8000000       7.38972e-18       7.38972e-18
 113.9000000       7.38923e-18       7.38923e-18
 114.0000000       7.38875e-18       7.38875e-18
 114.1000000       7.38826e-18       7.38826e-18
 114.2000000       7.38777e-18       7.38777e-18
 114.3000000       7.38728e-18       7.38728e-18
 114.4000000       7.38679e-18       7.38679e-18
 114.5000000       7.38631e-18       7.38631e-18
 114.6000000       7.38582e-18       7.38582e-18
 114.7000000       7.38533e-18       7.38533e-18
 114.8000000       7.38484e-18       7.38484e-18
 114.9000000       7.38435e-18       7.38435e-18
 115.0000000       7.38387e-18       7.38387e-18
 115.1000000       7.38338e-18       7.38338e-18
 115.2000000       7.38289e-18       7.38289e-18
 115.3000000       7.38240e-18       7.38240e-18
 115.4000000       7.38192e-18       7.38192e-18
 115.5000000       7.38143e-18       7.38143e-18
 115.6000000       7.38094e-18       7.38094e-18
 115.7000000       7.38045e-18       7.38045e-18
 115.8000000       7.37996e-18       7.37996e-18
 115.9000000       7.37948e-18       7.37948e-18
 116.0000000       7.37899e-18       7.37899e-18
 116.1000000       7.37850e-18       7.37850e-18
 116.2000000       7.37801e-18       7.37801e-18
 116.3000000       7.37752e-18       7.37752e-18
 116.4000000       7.37704e-18       7.37704e-18
 116.5000000       7.37655e-18       7.37655e-18
 116.6000000       7.37606e-18       7.37606e-18
 116.7000000       7.37557e-18       7.37557e-18
 116.8000000       7.37508e-18       7.37508e-18
 116.9000000       7.37460e-18       7.37460e-18
 117.0000000       7.37411e-18       7.37411e-18
 117.1000000       7.37362e-18       7.37362e-18
 117.2000000       7.37313e-18       7.37313e-18
 117.3000000       7.37264e-18       7.37264e-18
 117.4000000       7.37216e-18       7.37216e-18
 117.5000000       7.37167e-18       7.37167e-18
 117.6000000       7.37118e-18       7.37118e-18
 117.7000000       7.37069e-18       7.37069e-18
 117.8000000       7.37020e-18       7.37020e-18
 117.9000000       7.36972e-18       7.36972e-18
 118.0000000       7.36923e-18       7.36923e-18
 118.1000000       7.36874e-18       7.36874e-18
 118.2000000       7.36825e-18       7.36825e-18
 118.3000000       7.36776e-18       7.36776e-18
 118.4000000       7.36728e-18       7.36728e-18
 118.5000000       7.36679e-18       7.36679e-18
 118.6000000       7.36630e-18       7.36630e-18
 118.7000000       7.36581e-18       7.36581e-18
 118.8000000       7.36532e-18       7.36532e-18
 118.9000000       7.36484e-18       7.36484e-18
 119.0000000       7.36435e-18       7.36435e-18
 119.1000000       7.36386e-18       7.36386e-18
 119.2000000       7.36337e-18       7.36337e-18
 119.3000000       7.36289e-18       7.36289e-18
 119.4000000       7.36240e-18       7.36240e-18
 119.5000000       7.36191e-18       7.36191e-18
 119.6000000       7.36142e-18       7.36142e-18
 119.7000000       7.36093e-18       7.36093e-18
 119.8000000       7.36045e-18       7.36045e-18
 119.9000000       7.35996e-18       7.35996e-18
 120.0000000       7.35947e-18       7.35947e-18
 120.1000000       7.35898e-18       7.35898e-18
 120.2000000       7.35849e-18       7.35849e-18
 120.3000000       7.35801e-18       7.35801e-18
 120.4000000       7.35752e-18       7.35752e-18
 120.5000000       7.35703e-18       7.35703e-18
 120.6000000       7.35654e-18       7.35654e-18
 120.7000000       7.35605e-18       7.35605e-18
 120.8000000       7.35557e-18       7.35557e-18
 120.9000000       7.35508e-18       7.35508e-18
 121.0000000       7.35459e-18       7.35459e-18
 121.1000000       7.35410e-18       7.35410e-18
 121.2000000       7.35361e-18       7.35361e-18
 121.3000000       7.35313e-18       7.35313e-18
 121.4000000       7.35264e-18       7.35264e-18
 121.5000000       7.35215e-18       7.35215e-18
 121.6000000       7.35166e-18       7.35166e-18
 121.7000000       7.35117e-18       7.35117e-18
 121.8000000       7.35069e-18       7.35069e-18
 121.9000000       7.35020e-18       7.35020e-18
 122.0000000       7.34971e-18       7.34971e-18
 122.1000000       7.34922e-18       7.34922e-18
 122.2000000       7.34873e-18       7.34873e-18
 122.3000000       7.34825e-18       7.34825e-18
 122.4000000       7.34776e-18       7.34776e-18
 122.5000000       7.34727e-18       7.34727e-18
 122.6000000       7.34678e-18       7.34678e-18
 122.7000000       7.34629e-18       7.34629e-18
 122.8000000       7.34581e-18       7.34581e-18
 122.9000000       7.34532e-18       7.34532e-18
 123.0000000       7.34483e-18       7.34483e-18
 123.1000000       7.34434e-18       7.34434e-18
 123.2000000       7.34385e-18       7.34385e-18
 123.3000000       7.34337e-18       7.34337e-18
 123.4000000       7.34288e-18       7.34288e-18
 123.5000000       7.34239e-18       7.34239e-18
 123.6000000       7.34190e-18       7.34190e-18
 123.7000000       7.34142e-18       7.34142e-18
 123.8000000       7.34093e-18       7.34093e-18
 123.9000000       7.34044e-18       7.34044e-18
 124.0000000       7.33941e-18       7.33941e-18
 124.1000000       7.33617e-18       7.33617e-18
 124.2000000       7.33268e-18       7.33268e-18
 124.3000000       7.32919e-18       7.32919e-18
 124.4000000       7.32571e-18       7.32571e-18
 124.5000000       7.32222e-18       7.32222e-18
 124.6000000       7.31874e-18       7.31874e-18
 124.7000000       7.31525e-18       7.31525e-18
 124.8000000       7.31176e-18       7.31176e-18
 124.9000000       7.30828e-18       7.30828e-18
 125.0000000       7.30479e-18       7.30479e-18
 125.1000000       7.30131e-18       7.30131e-18
 125.2000000       7.29782e-18       7.29782e-18
 125.3000000       7.29434e-18       7.29434e-18
 125.4000000       7.29085e-18       7.29085e-18
 125.5000000       7.28736e-18       7.28736e-18
 125.6000000       7.28388e-18       7.28388e-18
 125.7000000       7.28039e-18       7.28039e-18
 125.8000000       7.27691e-18       7.27691e-18
 125.9000000       7.27342e-18       7.27342e-18
 126.0000000       7.26993e-18       7.26993e-18
 126.1000000       7.26645e-18       7.26645e-18
 126.2000000       7.26296e-18       7.26296e-18
 126.3000000       7.25948e-18       7.25948e-18
 126.4000000       7.25599e-18       7.25599e-18
 126.5000000       7.25251e-18       7.25251e-18
 126.6000000       7.24902e-18       7.24902e-18
 126.7000000       7.24553e-18       7.24553e-18
 126.8000000       7.24205e-18       7.24205e-18
 126.9000000       7.23856e-18       7.23856e-18
 127.0000000       7.23508e-18       7.23508e-18
 127.1000000       7.23159e-18       7.23159e-18
 127.2000000       7.22810e-18       7.22810e-18
 127.3000000       7.22462e-18       7.22462e-18
 127.4000000       7.22113e-18       7.22113e-18
 127.5000000       7.21765e-18       7.21765e-18
 127.6000000       7.21416e-18       7.21416e-18
 127.7000000       7.21068e-18       7.21068e-18
 127.8000000       7.20719e-18       7.20719e-18
 127.9000000       7.20370e-18       7.20370e-18
 128.0000000       7.20022e-18       7.20022e-18
 128.1000000       7.19673e-18       7.19673e-18
 128.2000000       7.19325e-18       7.19325e-18
 128.3000000       7.18976e-18       7.18976e-18
 128.4000000       7.18627e-18       7.18627e-18
 128.5000000       7.18279e-18       7.18279e-18
 128.6000000       7.17930e-18       7.17930e-18
 128.7000000       7.17582e-18       7.17582e-18
 128.8000000       7.17233e-18       7.17233e-18
 128.9000000       7.16885e-18       7.16885e-18
 129.0000000       7.16536e-18       7.16536e-18
 129.1000000       7.16187e-18       7.16187e-18
 129.2000000       7.15839e-18       7.15839e-18
 129.3000000       7.15490e-18       7.15490e-18
 129.4000000       7.15142e-18       7.15142e-18
 129.5000000       7.14793e-18       7.14793e-18
 129.6000000       7.14444e-18       7.14444e-18
 129.7000000       7.14096e-18       7.14096e-18
 129.8000000       7.13747e-18       7.13747e-18
 129.9000000       7.13399e-18       7.13399e-18
 130.0000000       7.13050e-18       7.13050e-18
 130.1000000       7.12702e-18       7.12702e-18
 130.2000000       7.12353e-18       7.12353e-18
 130.3000000       7.12004e-18       7.12004e-18
 130.4000000       7.11656e-18       7.11656e-18
 130.5000000       7.11307e-18       7.11307e-18
 130.6000000       7.10959e-18       7.10959e-18
 130.7000000       7.10610e-18       7.10610e-18
 130.8000000       7.10261e-18       7.10261e-18
 130.9000000       7.09913e-18       7.09913e-18
 131.0000000       7.09564e-18       7.09564e-18
 131.1000000       7.09216e-18       7.09216e-18
 131.2000000       7.08867e-18       7.08867e-18
