# CS2 cross sections
# Alan Heays 2016-11-22
# References: cook1969b,  carnovale1981, day1982, wu1983, xu1993, sunanda2015, grosch2015
# photoabsorption   -- Photoabsorption cross section (cm2)
# photodissociation -- Photodissociation cross section (cm2)
# photoionisation   -- Photoionisation cross section (cm2)
# 
# wavelength   photoabsorption photodissociation   photoionisation
  18.3000000       3.78585e-18       0.00000e+00       3.78585e-18
  18.4000000       3.79484e-18       0.00000e+00       3.79484e-18
  18.5000000       3.80682e-18       0.00000e+00       3.80682e-18
  18.6000000       3.81880e-18       0.00000e+00       3.81880e-18
  18.7000000       3.83078e-18       0.00000e+00       3.83078e-18
  18.8000000       3.84279e-18       0.00000e+00       3.84279e-18
  18.9000000       3.86302e-18       0.00000e+00       3.86302e-18
  19.0000000       3.88993e-18       0.00000e+00       3.88993e-18
  19.1000000       3.91684e-18       0.00000e+00       3.91684e-18
  19.2000000       3.94376e-18       0.00000e+00       3.94376e-18
  19.3000000       3.97067e-18       0.00000e+00       3.97067e-18
  19.4000000       3.99271e-18       0.00000e+00       3.99271e-18
  19.5000000       4.00496e-18       0.00000e+00       4.00496e-18
  19.6000000       4.01695e-18       0.00000e+00       4.01695e-18
  19.7000000       4.02893e-18       0.00000e+00       4.02893e-18
  19.8000000       4.04092e-18       0.00000e+00       4.04092e-18
  19.9000000       4.05290e-18       0.00000e+00       4.05290e-18
  20.0000000       4.05900e-18       0.00000e+00       4.05900e-18
  20.1000000       4.05877e-18       0.00000e+00       4.05877e-18
  20.2000000       4.05853e-18       0.00000e+00       4.05853e-18
  20.3000000       4.05829e-18       0.00000e+00       4.05829e-18
  20.4000000       4.05805e-18       0.00000e+00       4.05805e-18
  20.5000000       4.05814e-18       0.00000e+00       4.05814e-18
  20.6000000       4.07538e-18       0.00000e+00       4.07538e-18
  20.7000000       4.10230e-18       0.00000e+00       4.10230e-18
  20.8000000       4.12921e-18       0.00000e+00       4.12921e-18
  20.9000000       4.15612e-18       0.00000e+00       4.15612e-18
  21.0000000       4.18303e-18       0.00000e+00       4.18303e-18
  21.1000000       4.20882e-18       0.00000e+00       4.20882e-18
  21.2000000       4.23303e-18       0.00000e+00       4.23303e-18
  21.3000000       4.25722e-18       0.00000e+00       4.25722e-18
  21.4000000       4.28142e-18       0.00000e+00       4.28142e-18
  21.5000000       4.30562e-18       0.00000e+00       4.30562e-18
  21.6000000       4.32977e-18       0.00000e+00       4.32977e-18
  21.7000000       4.34691e-18       0.00000e+00       4.34691e-18
  21.8000000       4.35890e-18       0.00000e+00       4.35890e-18
  21.9000000       4.37088e-18       0.00000e+00       4.37088e-18
  22.0000000       4.38286e-18       0.00000e+00       4.38286e-18
  22.1000000       4.39485e-18       0.00000e+00       4.39485e-18
  22.2000000       4.40688e-18       0.00000e+00       4.40688e-18
  22.3000000       4.41984e-18       0.00000e+00       4.41984e-18
  22.4000000       4.43318e-18       0.00000e+00       4.43318e-18
  22.5000000       4.44652e-18       0.00000e+00       4.44652e-18
  22.6000000       4.45986e-18       0.00000e+00       4.45986e-18
  22.7000000       4.47320e-18       0.00000e+00       4.47320e-18
  22.8000000       4.49346e-18       0.00000e+00       4.49346e-18
  22.9000000       4.52037e-18       0.00000e+00       4.52037e-18
  23.0000000       4.54728e-18       0.00000e+00       4.54728e-18
  23.1000000       4.57418e-18       0.00000e+00       4.57418e-18
  23.2000000       4.60109e-18       0.00000e+00       4.60109e-18
  23.3000000       4.62009e-18       0.00000e+00       4.62009e-18
  23.4000000       4.62062e-18       0.00000e+00       4.62062e-18
  23.5000000       4.62038e-18       0.00000e+00       4.62038e-18
  23.6000000       4.62014e-18       0.00000e+00       4.62014e-18
  23.7000000       4.61990e-18       0.00000e+00       4.61990e-18
  23.8000000       4.61966e-18       0.00000e+00       4.61966e-18
  23.9000000       4.61943e-18       0.00000e+00       4.61943e-18
  24.0000000       4.61919e-18       0.00000e+00       4.61919e-18
  24.1000000       4.61895e-18       0.00000e+00       4.61895e-18
  24.2000000       4.61872e-18       0.00000e+00       4.61872e-18
  24.3000000       4.61848e-18       0.00000e+00       4.61848e-18
  24.4000000       4.61833e-18       0.00000e+00       4.61833e-18
  24.5000000       4.62633e-18       0.00000e+00       4.62633e-18
  24.6000000       4.63967e-18       0.00000e+00       4.63967e-18
  24.7000000       4.65301e-18       0.00000e+00       4.65301e-18
  24.8000000       4.66635e-18       0.00000e+00       4.66635e-18
  24.9000000       4.67969e-18       0.00000e+00       4.67969e-18
  25.0000000       4.68791e-18       0.00000e+00       4.68791e-18
  25.1000000       4.68779e-18       0.00000e+00       4.68779e-18
  25.2000000       4.68755e-18       0.00000e+00       4.68755e-18
  25.3000000       4.68732e-18       0.00000e+00       4.68732e-18
  25.4000000       4.68708e-18       0.00000e+00       4.68708e-18
  25.5000000       4.68684e-18       0.00000e+00       4.68684e-18
  25.6000000       4.68660e-18       0.00000e+00       4.68660e-18
  25.7000000       4.68636e-18       0.00000e+00       4.68636e-18
  25.8000000       4.68613e-18       0.00000e+00       4.68613e-18
  25.9000000       4.68589e-18       0.00000e+00       4.68589e-18
  26.0000000       4.68565e-18       0.00000e+00       4.68565e-18
  26.1000000       4.68571e-18       0.00000e+00       4.68571e-18
  26.2000000       4.69395e-18       0.00000e+00       4.69395e-18
  26.3000000       4.70594e-18       0.00000e+00       4.70594e-18
  26.4000000       4.71792e-18       0.00000e+00       4.71792e-18
  26.5000000       4.72991e-18       0.00000e+00       4.72991e-18
  26.6000000       4.74189e-18       0.00000e+00       4.74189e-18
  26.7000000       4.75294e-18       0.00000e+00       4.75294e-18
  26.8000000       4.75497e-18       0.00000e+00       4.75497e-18
  26.9000000       4.75473e-18       0.00000e+00       4.75473e-18
  27.0000000       4.75450e-18       0.00000e+00       4.75450e-18
  27.1000000       4.75426e-18       0.00000e+00       4.75426e-18
  27.2000000       4.75402e-18       0.00000e+00       4.75402e-18
  27.3000000       4.75574e-18       0.00000e+00       4.75574e-18
  27.4000000       4.76657e-18       0.00000e+00       4.76657e-18
  27.5000000       4.77856e-18       0.00000e+00       4.77856e-18
  27.6000000       4.79054e-18       0.00000e+00       4.79054e-18
  27.7000000       4.80252e-18       0.00000e+00       4.80252e-18
  27.8000000       4.81450e-18       0.00000e+00       4.81450e-18
  27.9000000       4.81944e-18       0.00000e+00       4.81944e-18
  28.0000000       4.80649e-18       0.00000e+00       4.80649e-18
  28.1000000       4.79267e-18       0.00000e+00       4.79267e-18
  28.2000000       4.77885e-18       0.00000e+00       4.77885e-18
  28.3000000       4.76502e-18       0.00000e+00       4.76502e-18
  28.4000000       4.75288e-18       0.00000e+00       4.75288e-18
  28.5000000       4.75093e-18       0.00000e+00       4.75093e-18
  28.6000000       4.75070e-18       0.00000e+00       4.75070e-18
  28.7000000       4.75046e-18       0.00000e+00       4.75046e-18
  28.8000000       4.75022e-18       0.00000e+00       4.75022e-18
  28.9000000       4.74999e-18       0.00000e+00       4.74999e-18
  29.0000000       4.74975e-18       0.00000e+00       4.74975e-18
  29.1000000       4.74951e-18       0.00000e+00       4.74951e-18
  29.2000000       4.74927e-18       0.00000e+00       4.74927e-18
  29.3000000       4.74903e-18       0.00000e+00       4.74903e-18
  29.4000000       4.74879e-18       0.00000e+00       4.74879e-18
  29.5000000       4.74856e-18       0.00000e+00       4.74856e-18
  29.6000000       4.74832e-18       0.00000e+00       4.74832e-18
  29.7000000       4.74808e-18       0.00000e+00       4.74808e-18
  29.8000000       4.74784e-18       0.00000e+00       4.74784e-18
  29.9000000       4.74761e-18       0.00000e+00       4.74761e-18
  30.0000000       4.74737e-18       0.00000e+00       4.74737e-18
  30.1000000       4.74714e-18       0.00000e+00       4.74714e-18
  30.2000000       4.75328e-18       0.00000e+00       4.75328e-18
  30.3000000       4.76526e-18       0.00000e+00       4.76526e-18
  30.4000000       4.77724e-18       0.00000e+00       4.77724e-18
  30.5000000       4.78923e-18       0.00000e+00       4.78923e-18
  30.6000000       4.80121e-18       0.00000e+00       4.80121e-18
  30.7000000       4.81296e-18       0.00000e+00       4.81296e-18
  30.8000000       4.81669e-18       0.00000e+00       4.81669e-18
  30.9000000       4.81645e-18       0.00000e+00       4.81645e-18
  31.0000000       4.81621e-18       0.00000e+00       4.81621e-18
  31.1000000       4.81597e-18       0.00000e+00       4.81597e-18
  31.2000000       4.81574e-18       0.00000e+00       4.81574e-18
  31.3000000       4.81236e-18       0.00000e+00       4.81236e-18
  31.4000000       4.77534e-18       0.00000e+00       4.77534e-18
  31.5000000       4.72920e-18       0.00000e+00       4.72920e-18
  31.6000000       4.68307e-18       0.00000e+00       4.68307e-18
  31.7000000       4.63694e-18       0.00000e+00       4.63694e-18
  31.8000000       4.61295e-18       0.00000e+00       4.61295e-18
  31.9000000       4.64990e-18       0.00000e+00       4.64990e-18
  32.0000000       4.69037e-18       0.00000e+00       4.69037e-18
  32.1000000       4.73084e-18       0.00000e+00       4.73084e-18
  32.2000000       4.77131e-18       0.00000e+00       4.77131e-18
  32.3000000       4.80945e-18       0.00000e+00       4.80945e-18
  32.4000000       4.83155e-18       0.00000e+00       4.83155e-18
  32.5000000       4.85060e-18       0.00000e+00       4.85060e-18
  32.6000000       4.86966e-18       0.00000e+00       4.86966e-18
  32.7000000       4.88871e-18       0.00000e+00       4.88871e-18
  32.8000000       4.90777e-18       0.00000e+00       4.90777e-18
  32.9000000       4.92682e-18       0.00000e+00       4.92682e-18
  33.0000000       4.94588e-18       0.00000e+00       4.94588e-18
  33.1000000       4.96493e-18       0.00000e+00       4.96493e-18
  33.2000000       4.98399e-18       0.00000e+00       4.98399e-18
  33.3000000       5.00304e-18       0.00000e+00       5.00304e-18
  33.4000000       5.02206e-18       0.00000e+00       5.02206e-18
  33.5000000       5.04071e-18       0.00000e+00       5.04071e-18
  33.6000000       5.05927e-18       0.00000e+00       5.05927e-18
  33.7000000       5.07783e-18       0.00000e+00       5.07783e-18
  33.8000000       5.09639e-18       0.00000e+00       5.09639e-18
  33.9000000       5.11495e-18       0.00000e+00       5.11495e-18
  34.0000000       5.13351e-18       0.00000e+00       5.13351e-18
  34.1000000       5.15207e-18       0.00000e+00       5.15207e-18
  34.2000000       5.17063e-18       0.00000e+00       5.17063e-18
  34.3000000       5.18919e-18       0.00000e+00       5.18919e-18
  34.4000000       5.20775e-18       0.00000e+00       5.20775e-18
  34.5000000       5.22631e-18       0.00000e+00       5.22631e-18
  34.6000000       5.24487e-18       0.00000e+00       5.24487e-18
  34.7000000       5.26343e-18       0.00000e+00       5.26343e-18
  34.8000000       5.28199e-18       0.00000e+00       5.28199e-18
  34.9000000       5.30636e-18       0.00000e+00       5.30636e-18
  35.0000000       5.46738e-18       0.00000e+00       5.46738e-18
  35.1000000       5.68603e-18       0.00000e+00       5.68603e-18
  35.2000000       5.89462e-18       0.00000e+00       5.89462e-18
  35.3000000       5.95641e-18       0.00000e+00       5.95641e-18
  35.4000000       5.96975e-18       0.00000e+00       5.96975e-18
  35.5000000       5.98309e-18       0.00000e+00       5.98309e-18
  35.6000000       5.99643e-18       0.00000e+00       5.99643e-18
  35.7000000       6.00963e-18       0.00000e+00       6.00963e-18
  35.8000000       5.98933e-18       0.00000e+00       5.98933e-18
  35.9000000       5.94320e-18       0.00000e+00       5.94320e-18
  36.0000000       5.89707e-18       0.00000e+00       5.89707e-18
  36.1000000       5.85093e-18       0.00000e+00       5.85093e-18
  36.2000000       5.81219e-18       0.00000e+00       5.81219e-18
  36.3000000       5.83774e-18       0.00000e+00       5.83774e-18
  36.4000000       5.87821e-18       0.00000e+00       5.87821e-18
  36.5000000       5.91868e-18       0.00000e+00       5.91868e-18
  36.6000000       5.95915e-18       0.00000e+00       5.95915e-18
  36.7000000       5.99990e-18       0.00000e+00       5.99990e-18
  36.8000000       6.05361e-18       0.00000e+00       6.05361e-18
  36.9000000       6.11440e-18       0.00000e+00       6.11440e-18
  37.0000000       6.17520e-18       0.00000e+00       6.17520e-18
  37.1000000       6.23599e-18       0.00000e+00       6.23599e-18
  37.2000000       6.29595e-18       0.00000e+00       6.29595e-18
  37.3000000       6.35082e-18       0.00000e+00       6.35082e-18
  37.4000000       6.40484e-18       0.00000e+00       6.40484e-18
  37.5000000       6.45886e-18       0.00000e+00       6.45886e-18
  37.6000000       6.51288e-18       0.00000e+00       6.51288e-18
  37.7000000       6.56690e-18       0.00000e+00       6.56690e-18
  37.8000000       6.62092e-18       0.00000e+00       6.62092e-18
  37.9000000       6.67495e-18       0.00000e+00       6.67495e-18
  38.0000000       6.72898e-18       0.00000e+00       6.72898e-18
  38.1000000       6.78301e-18       0.00000e+00       6.78301e-18
  38.2000000       6.83704e-18       0.00000e+00       6.83704e-18
  38.3000000       6.94297e-18       0.00000e+00       6.94297e-18
  38.4000000       7.10101e-18       0.00000e+00       7.10101e-18
  38.5000000       7.25904e-18       0.00000e+00       7.25904e-18
  38.6000000       7.41708e-18       0.00000e+00       7.41708e-18
  38.7000000       7.57511e-18       0.00000e+00       7.57511e-18
  38.8000000       7.73137e-18       0.00000e+00       7.73137e-18
  38.9000000       7.78831e-18       0.00000e+00       7.78831e-18
  39.0000000       7.78807e-18       0.00000e+00       7.78807e-18
  39.1000000       7.78783e-18       0.00000e+00       7.78783e-18
  39.2000000       7.78759e-18       0.00000e+00       7.78759e-18
  39.3000000       7.78735e-18       0.00000e+00       7.78735e-18
  39.4000000       7.79970e-18       0.00000e+00       7.79970e-18
  39.5000000       7.82987e-18       0.00000e+00       7.82987e-18
  39.6000000       7.86017e-18       0.00000e+00       7.86017e-18
  39.7000000       7.89047e-18       0.00000e+00       7.89047e-18
  39.8000000       7.92770e-18       0.00000e+00       7.92770e-18
  39.9000000       8.12413e-18       0.00000e+00       8.12413e-18
  40.0000000       8.38704e-18       0.00000e+00       8.38704e-18
  40.1000000       8.64994e-18       0.00000e+00       8.64994e-18
  40.2000000       8.82968e-18       0.00000e+00       8.82968e-18
  40.3000000       8.78883e-18       0.00000e+00       8.78883e-18
  40.4000000       8.73615e-18       0.00000e+00       8.73615e-18
  40.5000000       8.68346e-18       0.00000e+00       8.68346e-18
  40.6000000       8.66145e-18       0.00000e+00       8.66145e-18
  40.7000000       8.74402e-18       0.00000e+00       8.74402e-18
  40.8000000       8.83525e-18       0.00000e+00       8.83525e-18
  40.9000000       8.92649e-18       0.00000e+00       8.92649e-18
  41.0000000       9.01772e-18       0.00000e+00       9.01772e-18
  41.1000000       9.14870e-18       0.00000e+00       9.14870e-18
  41.2000000       9.32234e-18       0.00000e+00       9.32234e-18
  41.3000000       9.49601e-18       0.00000e+00       9.49601e-18
  41.4000000       9.66967e-18       0.00000e+00       9.66967e-18
  41.5000000       9.79093e-18       0.00000e+00       9.79093e-18
  41.6000000       9.83225e-18       0.00000e+00       9.83225e-18
  41.7000000       9.87272e-18       0.00000e+00       9.87272e-18
  41.8000000       9.91319e-18       0.00000e+00       9.91319e-18
  41.9000000       9.95366e-18       0.00000e+00       9.95366e-18
  42.0000000       1.00024e-17       0.00000e+00       1.00024e-17
  42.1000000       1.00809e-17       0.00000e+00       1.00809e-17
  42.2000000       1.01620e-17       0.00000e+00       1.01620e-17
  42.3000000       1.02431e-17       0.00000e+00       1.02431e-17
  42.4000000       1.03242e-17       0.00000e+00       1.03242e-17
  42.5000000       1.04150e-17       0.00000e+00       1.04150e-17
  42.6000000       1.06028e-17       0.00000e+00       1.06028e-17
  42.7000000       1.08154e-17       0.00000e+00       1.08154e-17
  42.8000000       1.10280e-17       0.00000e+00       1.10280e-17
  42.9000000       1.12406e-17       0.00000e+00       1.12406e-17
  43.0000000       1.14068e-17       0.00000e+00       1.14068e-17
  43.1000000       1.14395e-17       0.00000e+00       1.14395e-17
  43.2000000       1.14636e-17       0.00000e+00       1.14636e-17
  43.3000000       1.14878e-17       0.00000e+00       1.14878e-17
  43.4000000       1.15120e-17       0.00000e+00       1.15120e-17
  43.5000000       1.15362e-17       0.00000e+00       1.15362e-17
  43.6000000       1.15908e-17       0.00000e+00       1.15908e-17
  43.7000000       1.16944e-17       0.00000e+00       1.16944e-17
  43.8000000       1.17987e-17       0.00000e+00       1.17987e-17
  43.9000000       1.19029e-17       0.00000e+00       1.19029e-17
  44.0000000       1.20125e-17       0.00000e+00       1.20125e-17
  44.1000000       1.21338e-17       0.00000e+00       1.21338e-17
  44.2000000       1.22554e-17       0.00000e+00       1.22554e-17
  44.3000000       1.23770e-17       0.00000e+00       1.23770e-17
  44.4000000       1.25035e-17       0.00000e+00       1.25035e-17
  44.5000000       1.26445e-17       0.00000e+00       1.26445e-17
  44.6000000       1.27864e-17       0.00000e+00       1.27864e-17
  44.7000000       1.29292e-17       0.00000e+00       1.29292e-17
  44.8000000       1.31062e-17       0.00000e+00       1.31062e-17
  44.9000000       1.33006e-17       0.00000e+00       1.33006e-17
  45.0000000       1.34939e-17       0.00000e+00       1.34939e-17
  45.1000000       1.36649e-17       0.00000e+00       1.36649e-17
  45.2000000       1.38270e-17       0.00000e+00       1.38270e-17
  45.3000000       1.39891e-17       0.00000e+00       1.39891e-17
  45.4000000       1.41512e-17       0.00000e+00       1.41512e-17
  45.5000000       1.43133e-17       0.00000e+00       1.43133e-17
  45.6000000       1.44753e-17       0.00000e+00       1.44753e-17
  45.7000000       1.46392e-17       0.00000e+00       1.46392e-17
  45.8000000       1.48464e-17       0.00000e+00       1.48464e-17
  45.9000000       1.50720e-17       0.00000e+00       1.50720e-17
  46.0000000       1.52975e-17       0.00000e+00       1.52975e-17
  46.1000000       1.55216e-17       0.00000e+00       1.55216e-17
  46.2000000       1.56529e-17       0.00000e+00       1.56529e-17
  46.3000000       1.57290e-17       0.00000e+00       1.57290e-17
  46.4000000       1.58050e-17       0.00000e+00       1.58050e-17
  46.5000000       1.58810e-17       0.00000e+00       1.58810e-17
  46.6000000       1.59621e-17       0.00000e+00       1.59621e-17
  46.7000000       1.60773e-17       0.00000e+00       1.60773e-17
  46.8000000       1.61989e-17       0.00000e+00       1.61989e-17
  46.9000000       1.63205e-17       0.00000e+00       1.63205e-17
  47.0000000       1.64450e-17       0.00000e+00       1.64450e-17
  47.1000000       1.65994e-17       0.00000e+00       1.65994e-17
  47.2000000       1.67615e-17       0.00000e+00       1.67615e-17
  47.3000000       1.69236e-17       0.00000e+00       1.69236e-17
  47.4000000       1.71294e-17       0.00000e+00       1.71294e-17
