# Cross sections for H3+
# Converted from earlier Leiden database cross sections by Alan Heays 2016-02-24
# Photodissociation source: H3+ PHOTODISSOCIATION, V=0 CALC. van Dishoeck
# Lines represented with gaussian of width 1.0 nm FWHM
# wavelength: (nm)
# photoabsorption:    cross section (cm2)
# photodissociation:  cross section (cm2)
# 
# wavelength   photoabsorption photodissociation
  41.4000000       9.16667e-20       9.16667e-20
  41.5000000       1.46667e-19       1.46667e-19
  41.6000000       2.20000e-19       2.20000e-19
  41.7000000       2.93333e-19       2.93333e-19
  41.8000000       3.66667e-19       3.66667e-19
  41.9000000       4.40000e-19       4.40000e-19
  42.0000000       5.13333e-19       5.13333e-19
  42.1000000       5.86667e-19       5.86667e-19
  42.2000000       6.60000e-19       6.60000e-19
  42.3000000       7.33333e-19       7.33333e-19
  42.4000000       8.06667e-19       8.06667e-19
  42.5000000       8.80000e-19       8.80000e-19
  42.6000000       9.53333e-19       9.53333e-19
  42.7000000       1.02667e-18       1.02667e-18
  42.8000000       1.10000e-18       1.10000e-18
  42.9000000       1.17333e-18       1.17333e-18
  43.0000000       1.24667e-18       1.24667e-18
  43.1000000       1.32000e-18       1.32000e-18
  43.2000000       1.39333e-18       1.39333e-18
  43.3000000       1.46667e-18       1.46667e-18
  43.4000000       1.54000e-18       1.54000e-18
  43.5000000       1.61333e-18       1.61333e-18
  43.6000000       1.68667e-18       1.68667e-18
  43.7000000       1.76000e-18       1.76000e-18
  43.8000000       1.83333e-18       1.83333e-18
  43.9000000       1.90667e-18       1.90667e-18
  44.0000000       1.98000e-18       1.98000e-18
  44.1000000       2.05333e-18       2.05333e-18
  44.2000000       2.12667e-18       2.12667e-18
  44.3000000       2.20333e-18       2.20333e-18
  44.4000000       2.30000e-18       2.30000e-18
  44.5000000       2.40000e-18       2.40000e-18
  44.6000000       2.50000e-18       2.50000e-18
  44.7000000       2.60000e-18       2.60000e-18
  44.8000000       2.70000e-18       2.70000e-18
  44.9000000       2.80000e-18       2.80000e-18
  45.0000000       2.90000e-18       2.90000e-18
  45.1000000       3.00000e-18       3.00000e-18
  45.2000000       3.10000e-18       3.10000e-18
  45.3000000       3.20000e-18       3.20000e-18
  45.4000000       3.30000e-18       3.30000e-18
  45.5000000       3.40000e-18       3.40000e-18
  45.6000000       3.50000e-18       3.50000e-18
  45.7000000       3.60000e-18       3.60000e-18
  45.8000000       3.70000e-18       3.70000e-18
  45.9000000       3.80000e-18       3.80000e-18
  46.0000000       3.90000e-18       3.90000e-18
  46.1000000       4.00000e-18       4.00000e-18
  46.2000000       4.10000e-18       4.10000e-18
  46.3000000       4.20000e-18       4.20000e-18
  46.4000000       4.30000e-18       4.30000e-18
  46.5000000       4.40000e-18       4.40000e-18
  46.6000000       4.50000e-18       4.50000e-18
  46.7000000       4.60000e-18       4.60000e-18
  46.8000000       4.70000e-18       4.70000e-18
  46.9000000       4.80000e-18       4.80000e-18
  47.0000000       4.90000e-18       4.90000e-18
  47.1000000       5.00000e-18       5.00000e-18
  47.2000000       5.10000e-18       5.10000e-18
  47.3000000       5.20000e-18       5.20000e-18
  47.4000000       5.30000e-18       5.30000e-18
  47.5000000       5.40000e-18       5.40000e-18
  47.6000000       5.50000e-18       5.50000e-18
  47.7000000       5.61688e-18       5.61688e-18
  47.8000000       5.83500e-18       5.83500e-18
  47.9000000       6.07000e-18       6.07000e-18
  48.0000000       6.30500e-18       6.30500e-18
  48.1000000       6.54000e-18       6.54000e-18
  48.2000000       6.77500e-18       6.77500e-18
  48.3000000       7.01000e-18       7.01000e-18
  48.4000000       7.24500e-18       7.24500e-18
  48.5000000       7.48000e-18       7.48000e-18
  48.6000000       7.71500e-18       7.71500e-18
  48.7000000       7.95000e-18       7.95000e-18
  48.8000000       8.18500e-18       8.18500e-18
  48.9000000       8.42000e-18       8.42000e-18
  49.0000000       8.65500e-18       8.65500e-18
  49.1000000       8.89000e-18       8.89000e-18
  49.2000000       9.12500e-18       9.12500e-18
  49.3000000       9.36000e-18       9.36000e-18
  49.4000000       9.59500e-18       9.59500e-18
  49.5000000       9.83000e-18       9.83000e-18
  49.6000000       1.00650e-17       1.00650e-17
  49.7000000       1.03000e-17       1.03000e-17
  49.8000000       1.05350e-17       1.05350e-17
  49.9000000       1.07700e-17       1.07700e-17
  50.0000000       1.10050e-17       1.10050e-17
  50.1000000       1.12400e-17       1.12400e-17
  50.2000000       1.14750e-17       1.14750e-17
  50.3000000       1.17100e-17       1.17100e-17
  50.4000000       1.19450e-17       1.19450e-17
  50.5000000       1.21800e-17       1.21800e-17
  50.6000000       1.24150e-17       1.24150e-17
  50.7000000       1.26500e-17       1.26500e-17
  50.8000000       1.28850e-17       1.28850e-17
  50.9000000       1.31200e-17       1.31200e-17
  51.0000000       1.33550e-17       1.33550e-17
  51.1000000       1.35900e-17       1.35900e-17
  51.2000000       1.38250e-17       1.38250e-17
  51.3000000       1.40600e-17       1.40600e-17
  51.4000000       1.42950e-17       1.42950e-17
  51.5000000       1.45300e-17       1.45300e-17
  51.6000000       1.47650e-17       1.47650e-17
  51.7000000       1.49946e-17       1.49946e-17
  51.8000000       1.51915e-17       1.51915e-17
  51.9000000       1.53830e-17       1.53830e-17
  52.0000000       1.55745e-17       1.55745e-17
  52.1000000       1.57660e-17       1.57660e-17
  52.2000000       1.59574e-17       1.59574e-17
  52.3000000       1.61489e-17       1.61489e-17
  52.4000000       1.63404e-17       1.63404e-17
  52.5000000       1.65319e-17       1.65319e-17
  52.6000000       1.67234e-17       1.67234e-17
  52.7000000       1.69149e-17       1.69149e-17
  52.8000000       1.71064e-17       1.71064e-17
  52.9000000       1.72979e-17       1.72979e-17
  53.0000000       1.74894e-17       1.74894e-17
  53.1000000       1.76809e-17       1.76809e-17
  53.2000000       1.78723e-17       1.78723e-17
  53.3000000       1.80638e-17       1.80638e-17
  53.4000000       1.82553e-17       1.82553e-17
  53.5000000       1.84468e-17       1.84468e-17
  53.6000000       1.86383e-17       1.86383e-17
  53.7000000       1.88298e-17       1.88298e-17
  53.8000000       1.90213e-17       1.90213e-17
  53.9000000       1.92128e-17       1.92128e-17
  54.0000000       1.94043e-17       1.94043e-17
  54.1000000       1.95957e-17       1.95957e-17
  54.2000000       1.97872e-17       1.97872e-17
  54.3000000       1.99787e-17       1.99787e-17
  54.4000000       2.01702e-17       2.01702e-17
  54.5000000       2.03617e-17       2.03617e-17
  54.6000000       2.05532e-17       2.05532e-17
  54.7000000       2.07447e-17       2.07447e-17
  54.8000000       2.09362e-17       2.09362e-17
  54.9000000       2.11277e-17       2.11277e-17
  55.0000000       2.13191e-17       2.13191e-17
  55.1000000       2.15106e-17       2.15106e-17
  55.2000000       2.17021e-17       2.17021e-17
  55.3000000       2.18936e-17       2.18936e-17
  55.4000000       2.20851e-17       2.20851e-17
  55.5000000       2.22766e-17       2.22766e-17
  55.6000000       2.24681e-17       2.24681e-17
  55.7000000       2.26596e-17       2.26596e-17
  55.8000000       2.28511e-17       2.28511e-17
  55.9000000       2.30426e-17       2.30426e-17
  56.0000000       2.32340e-17       2.32340e-17
  56.1000000       2.34255e-17       2.34255e-17
  56.2000000       2.36170e-17       2.36170e-17
  56.3000000       2.38085e-17       2.38085e-17
  56.4000000       2.39857e-17       2.39857e-17
  56.5000000       2.40769e-17       2.40769e-17
  56.6000000       2.41538e-17       2.41538e-17
  56.7000000       2.42308e-17       2.42308e-17
  56.8000000       2.43077e-17       2.43077e-17
  56.9000000       2.43846e-17       2.43846e-17
  57.0000000       2.44615e-17       2.44615e-17
  57.1000000       2.45385e-17       2.45385e-17
  57.2000000       2.46154e-17       2.46154e-17
  57.3000000       2.46923e-17       2.46923e-17
  57.4000000       2.47692e-17       2.47692e-17
  57.5000000       2.48462e-17       2.48462e-17
  57.6000000       2.49231e-17       2.49231e-17
  57.7000000       2.50000e-17       2.50000e-17
  57.8000000       2.50769e-17       2.50769e-17
  57.9000000       2.51538e-17       2.51538e-17
  58.0000000       2.52308e-17       2.52308e-17
  58.1000000       2.53077e-17       2.53077e-17
  58.2000000       2.53846e-17       2.53846e-17
  58.3000000       2.54615e-17       2.54615e-17
  58.4000000       2.55385e-17       2.55385e-17
  58.5000000       2.56154e-17       2.56154e-17
  58.6000000       2.56923e-17       2.56923e-17
  58.7000000       2.57692e-17       2.57692e-17
  58.8000000       2.58462e-17       2.58462e-17
  58.9000000       2.59231e-17       2.59231e-17
  59.0000000       2.59821e-17       2.59821e-17
  59.1000000       2.59333e-17       2.59333e-17
  59.2000000       2.58667e-17       2.58667e-17
  59.3000000       2.58000e-17       2.58000e-17
  59.4000000       2.57333e-17       2.57333e-17
  59.5000000       2.56667e-17       2.56667e-17
  59.6000000       2.56000e-17       2.56000e-17
  59.7000000       2.55333e-17       2.55333e-17
  59.8000000       2.54667e-17       2.54667e-17
  59.9000000       2.54000e-17       2.54000e-17
  60.0000000       2.53333e-17       2.53333e-17
  60.1000000       2.52667e-17       2.52667e-17
  60.2000000       2.52000e-17       2.52000e-17
  60.3000000       2.51333e-17       2.51333e-17
  60.4000000       2.50667e-17       2.50667e-17
  60.5000000       2.50000e-17       2.50000e-17
  60.6000000       2.49333e-17       2.49333e-17
  60.7000000       2.48667e-17       2.48667e-17
  60.8000000       2.48000e-17       2.48000e-17
  60.9000000       2.47333e-17       2.47333e-17
  61.0000000       2.46667e-17       2.46667e-17
  61.1000000       2.46000e-17       2.46000e-17
  61.2000000       2.45333e-17       2.45333e-17
  61.3000000       2.44667e-17       2.44667e-17
  61.4000000       2.44000e-17       2.44000e-17
  61.5000000       2.43333e-17       2.43333e-17
  61.6000000       2.42667e-17       2.42667e-17
  61.7000000       2.42000e-17       2.42000e-17
  61.8000000       2.41333e-17       2.41333e-17
  61.9000000       2.40667e-17       2.40667e-17
  62.0000000       2.39856e-17       2.39856e-17
  62.1000000       2.38182e-17       2.38182e-17
  62.2000000       2.36364e-17       2.36364e-17
  62.3000000       2.34545e-17       2.34545e-17
  62.4000000       2.32727e-17       2.32727e-17
  62.5000000       2.30909e-17       2.30909e-17
  62.6000000       2.29091e-17       2.29091e-17
  62.7000000       2.27273e-17       2.27273e-17
  62.8000000       2.25455e-17       2.25455e-17
  62.9000000       2.23636e-17       2.23636e-17
  63.0000000       2.21818e-17       2.21818e-17
  63.1000000       2.20000e-17       2.20000e-17
  63.2000000       2.18182e-17       2.18182e-17
  63.3000000       2.16364e-17       2.16364e-17
  63.4000000       2.14545e-17       2.14545e-17
  63.5000000       2.12727e-17       2.12727e-17
  63.6000000       2.10909e-17       2.10909e-17
  63.7000000       2.09091e-17       2.09091e-17
  63.8000000       2.07273e-17       2.07273e-17
  63.9000000       2.05455e-17       2.05455e-17
  64.0000000       2.03636e-17       2.03636e-17
  64.1000000       2.01818e-17       2.01818e-17
  64.2000000       2.00000e-17       2.00000e-17
  64.3000000       1.98182e-17       1.98182e-17
  64.4000000       1.96364e-17       1.96364e-17
  64.5000000       1.94545e-17       1.94545e-17
  64.6000000       1.92727e-17       1.92727e-17
  64.7000000       1.90909e-17       1.90909e-17
  64.8000000       1.89091e-17       1.89091e-17
  64.9000000       1.87273e-17       1.87273e-17
  65.0000000       1.85455e-17       1.85455e-17
  65.1000000       1.83636e-17       1.83636e-17
  65.2000000       1.81818e-17       1.81818e-17
  65.3000000       1.79936e-17       1.79936e-17
  65.4000000       1.77667e-17       1.77667e-17
  65.5000000       1.75333e-17       1.75333e-17
  65.6000000       1.73000e-17       1.73000e-17
  65.7000000       1.70667e-17       1.70667e-17
  65.8000000       1.68333e-17       1.68333e-17
  65.9000000       1.66000e-17       1.66000e-17
  66.0000000       1.63667e-17       1.63667e-17
  66.1000000       1.61333e-17       1.61333e-17
  66.2000000       1.59000e-17       1.59000e-17
  66.3000000       1.56667e-17       1.56667e-17
  66.4000000       1.54333e-17       1.54333e-17
  66.5000000       1.52000e-17       1.52000e-17
  66.6000000       1.49667e-17       1.49667e-17
  66.7000000       1.47333e-17       1.47333e-17
  66.8000000       1.45000e-17       1.45000e-17
  66.9000000       1.42667e-17       1.42667e-17
  67.0000000       1.40333e-17       1.40333e-17
  67.1000000       1.38000e-17       1.38000e-17
  67.2000000       1.35667e-17       1.35667e-17
  67.3000000       1.33333e-17       1.33333e-17
  67.4000000       1.31000e-17       1.31000e-17
  67.5000000       1.28667e-17       1.28667e-17
  67.6000000       1.26333e-17       1.26333e-17
  67.7000000       1.24000e-17       1.24000e-17
  67.8000000       1.21667e-17       1.21667e-17
  67.9000000       1.19333e-17       1.19333e-17
  68.0000000       1.17000e-17       1.17000e-17
  68.1000000       1.14667e-17       1.14667e-17
  68.2000000       1.12333e-17       1.12333e-17
  68.3000000       1.10000e-17       1.10000e-17
  68.4000000       1.07667e-17       1.07667e-17
  68.5000000       1.05333e-17       1.05333e-17
  68.6000000       1.03000e-17       1.03000e-17
  68.7000000       1.00667e-17       1.00667e-17
  68.8000000       9.83333e-18       9.83333e-18
  68.9000000       9.61292e-18       9.61292e-18
  69.0000000       9.47000e-18       9.47000e-18
  69.1000000       9.34000e-18       9.34000e-18
  69.2000000       9.21000e-18       9.21000e-18
  69.3000000       9.08000e-18       9.08000e-18
  69.4000000       8.95000e-18       8.95000e-18
  69.5000000       8.82000e-18       8.82000e-18
  69.6000000       8.69000e-18       8.69000e-18
  69.7000000       8.56000e-18       8.56000e-18
  69.8000000       8.43000e-18       8.43000e-18
  69.9000000       8.30000e-18       8.30000e-18
  70.0000000       8.17000e-18       8.17000e-18
  70.1000000       8.04000e-18       8.04000e-18
  70.2000000       7.91000e-18       7.91000e-18
  70.3000000       7.78000e-18       7.78000e-18
  70.4000000       7.65000e-18       7.65000e-18
  70.5000000       7.52000e-18       7.52000e-18
  70.6000000       7.39000e-18       7.39000e-18
  70.7000000       7.26000e-18       7.26000e-18
  70.8000000       7.13000e-18       7.13000e-18
  70.9000000       7.00000e-18       7.00000e-18
  71.0000000       6.87000e-18       6.87000e-18
  71.1000000       6.74000e-18       6.74000e-18
  71.2000000       6.61000e-18       6.61000e-18
  71.3000000       6.48000e-18       6.48000e-18
  71.4000000       6.35000e-18       6.35000e-18
  71.5000000       6.22000e-18       6.22000e-18
  71.6000000       6.09000e-18       6.09000e-18
  71.7000000       5.96000e-18       5.96000e-18
  71.8000000       5.83000e-18       5.83000e-18
  71.9000000       5.70000e-18       5.70000e-18
  72.0000000       5.57000e-18       5.57000e-18
  72.1000000       5.44000e-18       5.44000e-18
  72.2000000       5.31000e-18       5.31000e-18
  72.3000000       5.18000e-18       5.18000e-18
  72.4000000       5.05000e-18       5.05000e-18
  72.5000000       4.92000e-18       4.92000e-18
  72.6000000       4.79000e-18       4.79000e-18
  72.7000000       4.66000e-18       4.66000e-18
  72.8000000       4.53000e-18       4.53000e-18
  72.9000000       4.41027e-18       4.41027e-18
  73.0000000       4.35217e-18       4.35217e-18
  73.1000000       4.30435e-18       4.30435e-18
  73.2000000       4.25652e-18       4.25652e-18
  73.3000000       4.20870e-18       4.20870e-18
  73.4000000       4.16087e-18       4.16087e-18
  73.5000000       4.11304e-18       4.11304e-18
  73.6000000       4.06522e-18       4.06522e-18
  73.7000000       4.01739e-18       4.01739e-18
  73.8000000       3.96957e-18       3.96957e-18
  73.9000000       3.92174e-18       3.92174e-18
  74.0000000       3.87391e-18       3.87391e-18
  74.1000000       3.82609e-18       3.82609e-18
  74.2000000       3.77826e-18       3.77826e-18
  74.3000000       3.73043e-18       3.73043e-18
  74.4000000       3.68261e-18       3.68261e-18
  74.5000000       3.63478e-18       3.63478e-18
  74.6000000       3.58696e-18       3.58696e-18
  74.7000000       3.53913e-18       3.53913e-18
  74.8000000       3.49130e-18       3.49130e-18
  74.9000000       3.44348e-18       3.44348e-18
  75.0000000       3.39565e-18       3.39565e-18
  75.1000000       3.34783e-18       3.34783e-18
  75.2000000       3.30000e-18       3.30000e-18
  75.3000000       3.25217e-18       3.25217e-18
  75.4000000       3.20435e-18       3.20435e-18
  75.5000000       3.15652e-18       3.15652e-18
  75.6000000       3.10870e-18       3.10870e-18
  75.7000000       3.06087e-18       3.06087e-18
  75.8000000       3.01304e-18       3.01304e-18
  75.9000000       2.96522e-18       2.96522e-18
  76.0000000       2.91739e-18       2.91739e-18
  76.1000000       2.86957e-18       2.86957e-18
  76.2000000       2.82174e-18       2.82174e-18
  76.3000000       2.77391e-18       2.77391e-18
  76.4000000       2.72609e-18       2.72609e-18
  76.5000000       2.67826e-18       2.67826e-18
  76.6000000       2.63043e-18       2.63043e-18
  76.7000000       2.58261e-18       2.58261e-18
  76.8000000       2.53478e-18       2.53478e-18
  76.9000000       2.48696e-18       2.48696e-18
  77.0000000       2.43913e-18       2.43913e-18
  77.1000000       2.39130e-18       2.39130e-18
  77.2000000       2.34348e-18       2.34348e-18
  77.3000000       2.29565e-18       2.29565e-18
  77.4000000       2.24783e-18       2.24783e-18
  77.5000000       2.20350e-18       2.20350e-18
  77.6000000       2.18018e-18       2.18018e-18
  77.7000000       2.16036e-18       2.16036e-18
  77.8000000       2.14054e-18       2.14054e-18
  77.9000000       2.12072e-18       2.12072e-18
  78.0000000       2.10090e-18       2.10090e-18
  78.1000000       2.08108e-18       2.08108e-18
  78.2000000       2.06126e-18       2.06126e-18
  78.3000000       2.04144e-18       2.04144e-18
  78.4000000       2.02162e-18       2.02162e-18
  78.5000000       2.00180e-18       2.00180e-18
  78.6000000       1.98198e-18       1.98198e-18
  78.7000000       1.96216e-18       1.96216e-18
  78.8000000       1.94234e-18       1.94234e-18
  78.9000000       1.92252e-18       1.92252e-18
  79.0000000       1.90270e-18       1.90270e-18
  79.1000000       1.88288e-18       1.88288e-18
  79.2000000       1.86306e-18       1.86306e-18
  79.3000000       1.84324e-18       1.84324e-18
  79.4000000       1.82342e-18       1.82342e-18
  79.5000000       1.80360e-18       1.80360e-18
  79.6000000       1.78378e-18       1.78378e-18
  79.7000000       1.76396e-18       1.76396e-18
  79.8000000       1.74414e-18       1.74414e-18
  79.9000000       1.72432e-18       1.72432e-18
  80.0000000       1.70450e-18       1.70450e-18
  80.1000000       1.68468e-18       1.68468e-18
  80.2000000       1.66486e-18       1.66486e-18
  80.3000000       1.64505e-18       1.64505e-18
  80.4000000       1.62523e-18       1.62523e-18
  80.5000000       1.60541e-18       1.60541e-18
  80.6000000       1.58559e-18       1.58559e-18
  80.7000000       1.56577e-18       1.56577e-18
  80.8000000       1.54595e-18       1.54595e-18
  80.9000000       1.52613e-18       1.52613e-18
  81.0000000       1.50631e-18       1.50631e-18
  81.1000000       1.48649e-18       1.48649e-18
  81.2000000       1.46667e-18       1.46667e-18
  81.3000000       1.44685e-18       1.44685e-18
