# Li photoionisation cross section
# Alan Heays 2020-09-10
# Reference: huebner2015
# wavelength: Wavelength (nm)
# photoabsorption: Photoabsorption cross section (cm2)
# photoionisation: Photoionisation cross section (cm2)
# 
# wavelength   photoabsorption   photoionisation
   0.1000000       1.53334e-22       1.53334e-22
   0.2000000       2.53334e-22       2.53334e-22
   0.3000000       3.86667e-22       3.86667e-22
   0.4000000       5.20000e-22       5.20000e-22
   0.5000000       6.53333e-22       6.53333e-22
   0.6000000       7.86667e-22       7.86667e-22
   0.7000000       9.20000e-22       9.20000e-22
   0.8000000       1.05333e-21       1.05333e-21
   0.9000000       1.18667e-21       1.18667e-21
   1.0000000       1.42433e-21       1.42433e-21
   1.1000000       2.28800e-21       2.28800e-21
   1.2000000       3.25600e-21       3.25600e-21
   1.3000000       4.22400e-21       4.22400e-21
   1.4000000       5.19200e-21       5.19200e-21
   1.5000000       6.16000e-21       6.16000e-21
   1.6000000       7.12800e-21       7.12800e-21
   1.7000000       8.09600e-21       8.09600e-21
   1.8000000       9.06400e-21       9.06400e-21
   1.9000000       1.00320e-20       1.00320e-20
   2.0000000       1.11978e-20       1.11978e-20
   2.1000000       1.35500e-20       1.35500e-20
   2.2000000       1.61000e-20       1.61000e-20
   2.3000000       1.86500e-20       1.86500e-20
   2.4000000       2.12000e-20       2.12000e-20
   2.5000000       2.37500e-20       2.37500e-20
   2.6000000       2.63000e-20       2.63000e-20
   2.7000000       2.88500e-20       2.88500e-20
   2.8000000       3.14000e-20       3.14000e-20
   2.9000000       3.39500e-20       3.39500e-20
   3.0000000       3.67675e-20       3.67675e-20
   3.1000000       4.11900e-20       4.11900e-20
   3.2000000       4.58800e-20       4.58800e-20
   3.3000000       5.05700e-20       5.05700e-20
   3.4000000       5.52600e-20       5.52600e-20
   3.5000000       5.99500e-20       5.99500e-20
   3.6000000       6.46400e-20       6.46400e-20
   3.7000000       6.93300e-20       6.93300e-20
   3.8000000       7.40200e-20       7.40200e-20
   3.9000000       7.87100e-20       7.87100e-20
   4.0000000       8.37213e-20       8.37213e-20
   4.1000000       9.06600e-20       9.06600e-20
   4.2000000       9.79200e-20       9.79200e-20
   4.3000000       1.05180e-19       1.05180e-19
   4.4000000       1.12440e-19       1.12440e-19
   4.5000000       1.19700e-19       1.19700e-19
   4.6000000       1.26960e-19       1.26960e-19
   4.7000000       1.34220e-19       1.34220e-19
   4.8000000       1.41480e-19       1.41480e-19
   4.9000000       1.48740e-19       1.48740e-19
   5.0000000       1.56343e-19       1.56343e-19
   5.1000000       1.66000e-19       1.66000e-19
   5.2000000       1.76000e-19       1.76000e-19
   5.3000000       1.86000e-19       1.86000e-19
   5.4000000       1.96000e-19       1.96000e-19
   5.5000000       2.06000e-19       2.06000e-19
   5.6000000       2.16000e-19       2.16000e-19
   5.7000000       2.26000e-19       2.26000e-19
   5.8000000       2.36000e-19       2.36000e-19
   5.9000000       2.46000e-19       2.46000e-19
   6.0000000       2.56363e-19       2.56363e-19
   6.1000000       2.68900e-19       2.68900e-19
   6.2000000       2.81800e-19       2.81800e-19
   6.3000000       2.94700e-19       2.94700e-19
   6.4000000       3.07600e-19       3.07600e-19
   6.5000000       3.20500e-19       3.20500e-19
   6.6000000       3.33400e-19       3.33400e-19
   6.7000000       3.46300e-19       3.46300e-19
   6.8000000       3.59200e-19       3.59200e-19
   6.9000000       3.72100e-19       3.72100e-19
   7.0000000       3.85363e-19       3.85363e-19
   7.1000000       4.00800e-19       4.00800e-19
   7.2000000       4.16600e-19       4.16600e-19
   7.3000000       4.32400e-19       4.32400e-19
   7.4000000       4.48200e-19       4.48200e-19
   7.5000000       4.64000e-19       4.64000e-19
   7.6000000       4.79800e-19       4.79800e-19
   7.7000000       4.95600e-19       4.95600e-19
   7.8000000       5.11400e-19       5.11400e-19
   7.9000000       5.27200e-19       5.27200e-19
   8.0000000       5.43363e-19       5.43363e-19
   8.1000000       5.61700e-19       5.61700e-19
   8.2000000       5.80400e-19       5.80400e-19
   8.3000000       5.99100e-19       5.99100e-19
   8.4000000       6.17800e-19       6.17800e-19
   8.5000000       6.36500e-19       6.36500e-19
   8.6000000       6.55200e-19       6.55200e-19
   8.7000000       6.73900e-19       6.73900e-19
   8.8000000       6.92600e-19       6.92600e-19
   8.9000000       7.11300e-19       7.11300e-19
   9.0000000       7.30325e-19       7.30325e-19
   9.1000000       7.51300e-19       7.51300e-19
   9.2000000       7.72600e-19       7.72600e-19
   9.3000000       7.93900e-19       7.93900e-19
   9.4000000       8.15200e-19       8.15200e-19
   9.5000000       8.36500e-19       8.36500e-19
   9.6000000       8.57800e-19       8.57800e-19
   9.7000000       8.79100e-19       8.79100e-19
   9.8000000       9.00400e-19       9.00400e-19
   9.9000000       9.21700e-19       9.21700e-19
  10.0000000       9.43300e-19       9.43300e-19
  10.1000000       9.66700e-19       9.66700e-19
  10.2000000       9.90400e-19       9.90400e-19
  10.3000000       1.01410e-18       1.01410e-18
  10.4000000       1.03780e-18       1.03780e-18
  10.5000000       1.06150e-18       1.06150e-18
  10.6000000       1.08520e-18       1.08520e-18
  10.7000000       1.10890e-18       1.10890e-18
  10.8000000       1.13260e-18       1.13260e-18
  10.9000000       1.15630e-18       1.15630e-18
  11.0000000       1.18029e-18       1.18029e-18
  11.1000000       1.20600e-18       1.20600e-18
  11.2000000       1.23200e-18       1.23200e-18
  11.3000000       1.25800e-18       1.25800e-18
  11.4000000       1.28400e-18       1.28400e-18
  11.5000000       1.31000e-18       1.31000e-18
  11.6000000       1.33600e-18       1.33600e-18
  11.7000000       1.36200e-18       1.36200e-18
  11.8000000       1.38800e-18       1.38800e-18
  11.9000000       1.41400e-18       1.41400e-18
  12.0000000       1.44013e-18       1.44013e-18
  12.1000000       1.46700e-18       1.46700e-18
  12.2000000       1.49400e-18       1.49400e-18
  12.3000000       1.52100e-18       1.52100e-18
  12.4000000       1.54800e-18       1.54800e-18
  12.5000000       1.57500e-18       1.57500e-18
  12.6000000       1.60200e-18       1.60200e-18
  12.7000000       1.62900e-18       1.62900e-18
  12.8000000       1.65600e-18       1.65600e-18
  12.9000000       1.68300e-18       1.68300e-18
  13.0000000       1.71025e-18       1.71025e-18
  13.1000000       1.73900e-18       1.73900e-18
  13.2000000       1.76800e-18       1.76800e-18
  13.3000000       1.79700e-18       1.79700e-18
  13.4000000       1.82600e-18       1.82600e-18
  13.5000000       1.85500e-18       1.85500e-18
  13.6000000       1.88400e-18       1.88400e-18
  13.7000000       1.91300e-18       1.91300e-18
  13.8000000       1.94200e-18       1.94200e-18
  13.9000000       1.97100e-18       1.97100e-18
  14.0000000       2.00000e-18       2.00000e-18
  14.1000000       2.02900e-18       2.02900e-18
  14.2000000       2.05800e-18       2.05800e-18
  14.3000000       2.08700e-18       2.08700e-18
  14.4000000       2.11600e-18       2.11600e-18
  14.5000000       2.14500e-18       2.14500e-18
  14.6000000       2.17400e-18       2.17400e-18
  14.7000000       2.20300e-18       2.20300e-18
  14.8000000       2.23200e-18       2.23200e-18
  14.9000000       2.26100e-18       2.26100e-18
  15.0000000       2.29013e-18       2.29013e-18
  15.1000000       2.32000e-18       2.32000e-18
  15.2000000       2.35000e-18       2.35000e-18
  15.3000000       2.38000e-18       2.38000e-18
  15.4000000       2.41000e-18       2.41000e-18
  15.5000000       2.44000e-18       2.44000e-18
  15.6000000       2.47000e-18       2.47000e-18
  15.7000000       2.50000e-18       2.50000e-18
  15.8000000       2.53000e-18       2.53000e-18
  15.9000000       2.56000e-18       2.56000e-18
  16.0000000       2.58988e-18       2.58988e-18
  16.1000000       2.61900e-18       2.61900e-18
  16.2000000       2.64800e-18       2.64800e-18
  16.3000000       2.67700e-18       2.67700e-18
  16.4000000       2.70600e-18       2.70600e-18
  16.5000000       2.73500e-18       2.73500e-18
  16.6000000       2.76400e-18       2.76400e-18
  16.7000000       2.79300e-18       2.79300e-18
  16.8000000       2.82200e-18       2.82200e-18
  16.9000000       2.85100e-18       2.85100e-18
  17.0000000       2.88000e-18       2.88000e-18
  17.1000000       2.90900e-18       2.90900e-18
  17.2000000       2.93800e-18       2.93800e-18
  17.3000000       2.96700e-18       2.96700e-18
  17.4000000       2.99600e-18       2.99600e-18
  17.5000000       3.02500e-18       3.02500e-18
  17.6000000       3.05400e-18       3.05400e-18
  17.7000000       3.08300e-18       3.08300e-18
  17.8000000       3.11200e-18       3.11200e-18
  17.9000000       3.14100e-18       3.14100e-18
  18.0000000       3.16975e-18       3.16975e-18
  18.1000000       3.19700e-18       3.19700e-18
  18.2000000       3.22400e-18       3.22400e-18
  18.3000000       3.25100e-18       3.25100e-18
  18.4000000       3.27800e-18       3.27800e-18
  18.5000000       3.30500e-18       3.30500e-18
  18.6000000       3.33200e-18       3.33200e-18
  18.7000000       3.35900e-18       3.35900e-18
  18.8000000       3.38600e-18       3.38600e-18
  18.9000000       3.41300e-18       3.41300e-18
  19.0000000       3.44006e-18       3.44006e-18
  19.1000000       3.46745e-18       3.46745e-18
  19.2000000       3.49490e-18       3.49490e-18
  19.3000000       2.42334e-19       2.42334e-19
  19.4000000       5.27903e-20       5.27903e-20
  19.5000000       5.34086e-20       5.34086e-20
  19.6000000       5.40269e-20       5.40269e-20
  19.7000000       5.46452e-20       5.46452e-20
  19.8000000       5.52634e-20       5.52634e-20
  19.9000000       5.58817e-20       5.58817e-20
  20.0000000       5.65052e-20       5.65052e-20
  20.1000000       5.71600e-20       5.71600e-20
  20.2000000       5.78200e-20       5.78200e-20
  20.3000000       5.84800e-20       5.84800e-20
  20.4000000       5.91400e-20       5.91400e-20
  20.5000000       5.98000e-20       5.98000e-20
  20.6000000       6.04600e-20       6.04600e-20
  20.7000000       6.11200e-20       6.11200e-20
  20.8000000       6.17800e-20       6.17800e-20
  20.9000000       6.24400e-20       6.24400e-20
  21.0000000       6.31038e-20       6.31038e-20
  21.1000000       6.37900e-20       6.37900e-20
  21.2000000       6.44800e-20       6.44800e-20
  21.3000000       6.51700e-20       6.51700e-20
  21.4000000       6.58600e-20       6.58600e-20
  21.5000000       6.65500e-20       6.65500e-20
  21.6000000       6.72400e-20       6.72400e-20
  21.7000000       6.79300e-20       6.79300e-20
  21.8000000       6.86200e-20       6.86200e-20
  21.9000000       6.93100e-20       6.93100e-20
  22.0000000       7.00038e-20       7.00038e-20
  22.1000000       7.07200e-20       7.07200e-20
  22.2000000       7.14400e-20       7.14400e-20
  22.3000000       7.21600e-20       7.21600e-20
  22.4000000       7.28800e-20       7.28800e-20
  22.5000000       7.36000e-20       7.36000e-20
  22.6000000       7.43200e-20       7.43200e-20
  22.7000000       7.50400e-20       7.50400e-20
  22.8000000       7.57600e-20       7.57600e-20
  22.9000000       7.64800e-20       7.64800e-20
  23.0000000       7.72038e-20       7.72038e-20
  23.1000000       7.79500e-20       7.79500e-20
  23.2000000       7.87000e-20       7.87000e-20
  23.3000000       7.94500e-20       7.94500e-20
  23.4000000       8.02000e-20       8.02000e-20
  23.5000000       8.09500e-20       8.09500e-20
  23.6000000       8.17000e-20       8.17000e-20
  23.7000000       8.24500e-20       8.24500e-20
  23.8000000       8.32000e-20       8.32000e-20
  23.9000000       8.39500e-20       8.39500e-20
  24.0000000       8.47050e-20       8.47050e-20
  24.1000000       8.54900e-20       8.54900e-20
  24.2000000       8.62800e-20       8.62800e-20
  24.3000000       8.70700e-20       8.70700e-20
  24.4000000       8.78600e-20       8.78600e-20
  24.5000000       8.86500e-20       8.86500e-20
  24.6000000       8.94400e-20       8.94400e-20
  24.7000000       9.02300e-20       9.02300e-20
  24.8000000       9.10200e-20       9.10200e-20
  24.9000000       9.18100e-20       9.18100e-20
  25.0000000       9.26063e-20       9.26063e-20
  25.1000000       9.34400e-20       9.34400e-20
  25.2000000       9.42800e-20       9.42800e-20
  25.3000000       9.51200e-20       9.51200e-20
  25.4000000       9.59600e-20       9.59600e-20
  25.5000000       9.68000e-20       9.68000e-20
  25.6000000       9.76400e-20       9.76400e-20
  25.7000000       9.84800e-20       9.84800e-20
  25.8000000       9.93200e-20       9.93200e-20
  25.9000000       1.00160e-19       1.00160e-19
  26.0000000       1.00995e-19       1.00995e-19
  26.1000000       1.01800e-19       1.01800e-19
  26.2000000       1.02600e-19       1.02600e-19
  26.3000000       1.03400e-19       1.03400e-19
  26.4000000       1.04200e-19       1.04200e-19
  26.5000000       1.05000e-19       1.05000e-19
  26.6000000       1.05800e-19       1.05800e-19
  26.7000000       1.06600e-19       1.06600e-19
  26.8000000       1.07400e-19       1.07400e-19
  26.9000000       1.08200e-19       1.08200e-19
  27.0000000       1.09013e-19       1.09013e-19
  27.1000000       1.09900e-19       1.09900e-19
  27.2000000       1.10800e-19       1.10800e-19
  27.3000000       1.11700e-19       1.11700e-19
  27.4000000       1.12600e-19       1.12600e-19
  27.5000000       1.13500e-19       1.13500e-19
  27.6000000       1.14400e-19       1.14400e-19
  27.7000000       1.15300e-19       1.15300e-19
  27.8000000       1.16200e-19       1.16200e-19
  27.9000000       1.17100e-19       1.17100e-19
  28.0000000       1.18000e-19       1.18000e-19
  28.1000000       1.18900e-19       1.18900e-19
  28.2000000       1.19800e-19       1.19800e-19
  28.3000000       1.20700e-19       1.20700e-19
  28.4000000       1.21600e-19       1.21600e-19
  28.5000000       1.22500e-19       1.22500e-19
  28.6000000       1.23400e-19       1.23400e-19
  28.7000000       1.24300e-19       1.24300e-19
  28.8000000       1.25200e-19       1.25200e-19
  28.9000000       1.26100e-19       1.26100e-19
  29.0000000       1.27000e-19       1.27000e-19
  29.1000000       1.27900e-19       1.27900e-19
  29.2000000       1.28800e-19       1.28800e-19
  29.3000000       1.29700e-19       1.29700e-19
  29.4000000       1.30600e-19       1.30600e-19
  29.5000000       1.31500e-19       1.31500e-19
  29.6000000       1.32400e-19       1.32400e-19
  29.7000000       1.33300e-19       1.33300e-19
  29.8000000       1.34200e-19       1.34200e-19
  29.9000000       1.35100e-19       1.35100e-19
  30.0000000       1.36013e-19       1.36013e-19
  30.1000000       1.37000e-19       1.37000e-19
  30.2000000       1.38000e-19       1.38000e-19
  30.3000000       1.39000e-19       1.39000e-19
  30.4000000       1.40000e-19       1.40000e-19
  30.5000000       1.41000e-19       1.41000e-19
  30.6000000       1.42000e-19       1.42000e-19
  30.7000000       1.43000e-19       1.43000e-19
  30.8000000       1.44000e-19       1.44000e-19
  30.9000000       1.45000e-19       1.45000e-19
  31.0000000       1.46000e-19       1.46000e-19
  31.1000000       1.47000e-19       1.47000e-19
  31.2000000       1.48000e-19       1.48000e-19
  31.3000000       1.49000e-19       1.49000e-19
  31.4000000       1.50000e-19       1.50000e-19
  31.5000000       1.51000e-19       1.51000e-19
  31.6000000       1.52000e-19       1.52000e-19
  31.7000000       1.53000e-19       1.53000e-19
  31.8000000       1.54000e-19       1.54000e-19
  31.9000000       1.55000e-19       1.55000e-19
  32.0000000       1.56000e-19       1.56000e-19
  32.1000000       1.57000e-19       1.57000e-19
  32.2000000       1.58000e-19       1.58000e-19
  32.3000000       1.59000e-19       1.59000e-19
  32.4000000       1.60000e-19       1.60000e-19
  32.5000000       1.61000e-19       1.61000e-19
  32.6000000       1.62000e-19       1.62000e-19
  32.7000000       1.63000e-19       1.63000e-19
  32.8000000       1.64000e-19       1.64000e-19
  32.9000000       1.65000e-19       1.65000e-19
  33.0000000       1.66000e-19       1.66000e-19
  33.1000000       1.67000e-19       1.67000e-19
  33.2000000       1.68000e-19       1.68000e-19
  33.3000000       1.69000e-19       1.69000e-19
  33.4000000       1.70000e-19       1.70000e-19
  33.5000000       1.71000e-19       1.71000e-19
  33.6000000       1.72000e-19       1.72000e-19
  33.7000000       1.73000e-19       1.73000e-19
  33.8000000       1.74000e-19       1.74000e-19
  33.9000000       1.75000e-19       1.75000e-19
  34.0000000       1.76013e-19       1.76013e-19
  34.1000000       1.77100e-19       1.77100e-19
  34.2000000       1.78200e-19       1.78200e-19
  34.3000000       1.79300e-19       1.79300e-19
  34.4000000       1.80400e-19       1.80400e-19
  34.5000000       1.81500e-19       1.81500e-19
  34.6000000       1.82600e-19       1.82600e-19
  34.7000000       1.83700e-19       1.83700e-19
  34.8000000       1.84800e-19       1.84800e-19
  34.9000000       1.85900e-19       1.85900e-19
  35.0000000       1.86988e-19       1.86988e-19
  35.1000000       1.88000e-19       1.88000e-19
  35.2000000       1.89000e-19       1.89000e-19
  35.3000000       1.90000e-19       1.90000e-19
  35.4000000       1.91000e-19       1.91000e-19
  35.5000000       1.92000e-19       1.92000e-19
  35.6000000       1.93000e-19       1.93000e-19
  35.7000000       1.94000e-19       1.94000e-19
  35.8000000       1.95000e-19       1.95000e-19
  35.9000000       1.96000e-19       1.96000e-19
  36.0000000       1.97013e-19       1.97013e-19
  36.1000000       1.98100e-19       1.98100e-19
  36.2000000       1.99200e-19       1.99200e-19
  36.3000000       2.00300e-19       2.00300e-19
  36.4000000       2.01400e-19       2.01400e-19
  36.5000000       2.02500e-19       2.02500e-19
  36.6000000       2.03600e-19       2.03600e-19
  36.7000000       2.04700e-19       2.04700e-19
  36.8000000       2.05800e-19       2.05800e-19
  36.9000000       2.06900e-19       2.06900e-19
  37.0000000       2.08013e-19       2.08013e-19
  37.1000000       2.09200e-19       2.09200e-19
  37.2000000       2.10400e-19       2.10400e-19
  37.3000000       2.11600e-19       2.11600e-19
  37.4000000       2.12800e-19       2.12800e-19
  37.5000000       2.14000e-19       2.14000e-19
  37.6000000       2.15200e-19       2.15200e-19
  37.7000000       2.16400e-19       2.16400e-19
  37.8000000       2.17600e-19       2.17600e-19
  37.9000000       2.18800e-19       2.18800e-19
  38.0000000       2.19988e-19       2.19988e-19
  38.1000000       2.21100e-19       2.21100e-19
  38.2000000       2.22200e-19       2.22200e-19
  38.3000000       2.23300e-19       2.23300e-19
  38.4000000       2.24400e-19       2.24400e-19
  38.5000000       2.25500e-19       2.25500e-19
  38.6000000       2.26600e-19       2.26600e-19
  38.7000000       2.27700e-19       2.27700e-19
  38.8000000       2.28800e-19       2.28800e-19
  38.9000000       2.29900e-19       2.29900e-19
  39.0000000       2.31013e-19       2.31013e-19
  39.1000000       2.32200e-19       2.32200e-19
  39.2000000       2.33400e-19       2.33400e-19
  39.3000000       2.34600e-19       2.34600e-19
  39.4000000       2.35800e-19       2.35800e-19
  39.5000000       2.37000e-19       2.37000e-19
  39.6000000       2.38200e-19       2.38200e-19
  39.7000000       2.39400e-19       2.39400e-19
  39.8000000       2.40600e-19       2.40600e-19
  39.9000000       2.41800e-19       2.41800e-19
  40.0000000       2.42988e-19       2.42988e-19
  40.1000000       2.44100e-19       2.44100e-19
  40.2000000       2.45200e-19       2.45200e-19
