# Mg photoionisation cross section
# Alan Heays 2016-02-03
# Reference: yih1998, mendoza1996, TOPbase_database
# photoionisation: Photoionisation cross section (cm2)
# Mg+: Mg + hnu -> Mg+ + e- cross section (cm2)
# 
# wavelength   photoabsorption   photoionisation
   8.1000000       3.09309e-21       3.09309e-21
   8.2000000       3.17937e-21       3.17937e-21
   8.3000000       3.29694e-21       3.29694e-21
   8.4000000       3.41746e-21       3.41746e-21
   8.5000000       3.54154e-21       3.54154e-21
   8.6000000       3.66768e-21       3.66768e-21
   8.7000000       3.79733e-21       3.79733e-21
   8.8000000       3.92933e-21       3.92933e-21
   8.9000000       4.06449e-21       4.06449e-21
   9.0000000       4.20336e-21       4.20336e-21
   9.1000000       4.34490e-21       4.34490e-21
   9.2000000       4.49019e-21       4.49019e-21
   9.3000000       4.63743e-21       4.63743e-21
   9.4000000       4.78932e-21       4.78932e-21
   9.5000000       4.94319e-21       4.94319e-21
   9.6000000       5.10181e-21       5.10181e-21
   9.7000000       5.26236e-21       5.26236e-21
   9.8000000       5.42742e-21       5.42742e-21
   9.9000000       5.59457e-21       5.59457e-21
  10.0000000       5.76664e-21       5.76664e-21
  10.1000000       5.94073e-21       5.94073e-21
  10.2000000       6.11958e-21       6.11958e-21
  10.3000000       6.30039e-21       6.30039e-21
  10.4000000       6.48640e-21       6.48640e-21
  10.5000000       6.67418e-21       6.67418e-21
  10.6000000       6.86764e-21       6.86764e-21
  10.7000000       7.06268e-21       7.06268e-21
  10.8000000       7.26390e-21       7.26390e-21
  10.9000000       7.46664e-21       7.46664e-21
  11.0000000       7.67508e-21       7.67508e-21
  11.1000000       7.88540e-21       7.88540e-21
  11.2000000       8.10112e-21       8.10112e-21
  11.3000000       8.32035e-21       8.32035e-21
  11.4000000       8.54276e-21       8.54276e-21
  11.5000000       8.77041e-21       8.77041e-21
  11.6000000       8.99963e-21       8.99963e-21
  11.7000000       9.23566e-21       9.23566e-21
  11.8000000       9.47280e-21       9.47280e-21
  11.9000000       9.71679e-21       9.71679e-21
  12.0000000       9.96378e-21       9.96378e-21
  12.1000000       1.02143e-20       1.02143e-20
  12.2000000       1.04713e-20       1.04713e-20
  12.3000000       1.07291e-20       1.07291e-20
  12.4000000       1.09932e-20       1.09932e-20
  12.5000000       1.12589e-20       1.12589e-20
  12.6000000       1.15299e-20       1.15299e-20
  12.7000000       1.18082e-20       1.18082e-20
  12.8000000       1.20875e-20       1.20875e-20
  12.9000000       1.23756e-20       1.23756e-20
  13.0000000       1.26661e-20       1.26661e-20
  13.1000000       1.29602e-20       1.29602e-20
  13.2000000       1.32619e-20       1.32619e-20
  13.3000000       1.35640e-20       1.35640e-20
  13.4000000       1.38729e-20       1.38729e-20
  13.5000000       1.41858e-20       1.41858e-20
  13.6000000       1.45002e-20       1.45002e-20
  13.7000000       1.48255e-20       1.48255e-20
  13.8000000       1.51530e-20       1.51530e-20
  13.9000000       1.54839e-20       1.54839e-20
  14.0000000       1.58246e-20       1.58246e-20
  14.1000000       1.61659e-20       1.61659e-20
  14.2000000       1.65125e-20       1.65125e-20
  14.3000000       1.68669e-20       1.68669e-20
  14.4000000       1.72215e-20       1.72215e-20
  14.5000000       1.75826e-20       1.75826e-20
  14.6000000       1.79495e-20       1.79495e-20
  14.7000000       1.83164e-20       1.83164e-20
  14.8000000       1.86930e-20       1.86930e-20
  14.9000000       1.90757e-20       1.90757e-20
  15.0000000       1.94585e-20       1.94585e-20
  15.1000000       1.98506e-20       1.98506e-20
  15.2000000       2.02482e-20       2.02482e-20
  15.3000000       2.06459e-20       2.06459e-20
  15.4000000       2.10543e-20       2.10543e-20
  15.5000000       2.14696e-20       2.14696e-20
  15.6000000       2.18850e-20       2.18850e-20
  15.7000000       2.23091e-20       2.23091e-20
  15.8000000       2.27416e-20       2.27416e-20
  15.9000000       2.31740e-20       2.31740e-20
  16.0000000       2.36136e-20       2.36136e-20
  16.1000000       2.40655e-20       2.40655e-20
  16.2000000       2.45176e-20       2.45176e-20
  16.3000000       2.49727e-20       2.49727e-20
  16.4000000       2.54391e-20       2.54391e-20
  16.5000000       2.59065e-20       2.59065e-20
  16.6000000       2.63750e-20       2.63750e-20
  16.7000000       2.68563e-20       2.68563e-20
  16.8000000       2.73415e-20       2.73415e-20
  16.9000000       2.78268e-20       2.78268e-20
  17.0000000       2.83233e-20       2.83233e-20
  17.1000000       2.88322e-20       2.88322e-20
  17.2000000       2.93411e-20       2.93411e-20
  17.3000000       2.98529e-20       2.98529e-20
  17.4000000       3.03791e-20       3.03791e-20
  17.5000000       3.09073e-20       3.09073e-20
  17.6000000       3.14355e-20       3.14355e-20
  17.7000000       3.19757e-20       3.19757e-20
  17.8000000       3.25255e-20       3.25255e-20
  17.9000000       3.30752e-20       3.30752e-20
  18.0000000       3.36275e-20       3.36275e-20
  18.1000000       3.41951e-20       3.41951e-20
  18.2000000       3.47653e-20       3.47653e-20
  18.3000000       3.53355e-20       3.53355e-20
  18.4000000       3.59151e-20       3.59151e-20
  18.5000000       3.65105e-20       3.65105e-20
  18.6000000       3.71062e-20       3.71062e-20
  18.7000000       3.77021e-20       3.77021e-20
  18.8000000       3.83133e-20       3.83133e-20
  18.9000000       3.89333e-20       3.89333e-20
  19.0000000       3.95533e-20       3.95533e-20
  19.1000000       4.01748e-20       4.01748e-20
  19.2000000       4.08133e-20       4.08133e-20
  19.3000000       4.14565e-20       4.14565e-20
  19.4000000       4.20997e-20       4.20997e-20
  19.5000000       4.27464e-20       4.27464e-20
  19.6000000       4.34139e-20       4.34139e-20
  19.7000000       4.40848e-20       4.40848e-20
  19.8000000       4.47558e-20       4.47558e-20
  19.9000000       4.54313e-20       4.54313e-20
  20.0000000       4.61287e-20       4.61287e-20
  20.1000000       4.68288e-20       4.68288e-20
  20.2000000       4.75289e-20       4.75289e-20
  20.3000000       4.82327e-20       4.82327e-20
  20.4000000       4.89553e-20       4.89553e-20
  20.5000000       4.96804e-20       4.96804e-20
  20.6000000       5.04056e-20       5.04056e-20
  20.7000000       5.11339e-20       5.11339e-20
  20.8000000       5.18861e-20       5.18861e-20
  20.9000000       5.26432e-20       5.26432e-20
  21.0000000       5.34002e-20       5.34002e-20
  21.1000000       5.41584e-20       5.41584e-20
  21.2000000       5.49376e-20       5.49376e-20
  21.3000000       5.57252e-20       5.57252e-20
  21.4000000       5.65127e-20       5.65127e-20
  21.5000000       5.73003e-20       5.73003e-20
  21.6000000       5.81034e-20       5.81034e-20
  21.7000000       5.89225e-20       5.89225e-20
  21.8000000       5.97416e-20       5.97416e-20
  21.9000000       6.05607e-20       6.05607e-20
  22.0000000       6.13870e-20       6.13870e-20
  22.1000000       6.22388e-20       6.22388e-20
  22.2000000       6.30928e-20       6.30928e-20
  22.3000000       6.39467e-20       6.39467e-20
  22.4000000       6.48014e-20       6.48014e-20
  22.5000000       6.56781e-20       6.56781e-20
  22.6000000       6.65656e-20       6.65656e-20
  22.7000000       6.74531e-20       6.74531e-20
  22.8000000       6.83406e-20       6.83406e-20
  22.9000000       6.92363e-20       6.92363e-20
  23.0000000       7.01583e-20       7.01583e-20
  23.1000000       7.10823e-20       7.10823e-20
  23.2000000       7.20064e-20       7.20064e-20
  23.3000000       7.29305e-20       7.29305e-20
  23.4000000       7.38748e-20       7.38748e-20
  23.5000000       7.48362e-20       7.48362e-20
  23.6000000       7.57976e-20       7.57976e-20
  23.7000000       7.67589e-20       7.67589e-20
  23.8000000       7.77225e-20       7.77225e-20
  23.9000000       7.87151e-20       7.87151e-20
  24.0000000       7.97166e-20       7.97166e-20
  24.1000000       8.07182e-20       8.07182e-20
  24.2000000       8.17198e-20       8.17198e-20
  24.3000000       8.27268e-20       8.27268e-20
  24.4000000       8.37641e-20       8.37641e-20
  24.5000000       8.48060e-20       8.48060e-20
  24.6000000       8.58479e-20       8.58479e-20
  24.7000000       8.68898e-20       8.68898e-20
  24.8000000       8.79398e-20       8.79398e-20
  24.9000000       8.90217e-20       8.90217e-20
  25.0000000       9.01070e-20       9.01070e-20
  25.1000000       9.11922e-20       9.11922e-20
  25.2000000       9.22774e-20       9.22774e-20
  25.3000000       9.33705e-20       9.33705e-20
  25.4000000       9.44953e-20       9.44953e-20
  25.5000000       9.56235e-20       9.56235e-20
  25.6000000       9.67518e-20       9.67518e-20
  25.7000000       9.78800e-20       9.78800e-20
  25.8000000       9.90137e-20       9.90137e-20
  25.9000000       1.00181e-19       1.00181e-19
  26.0000000       1.01355e-19       1.01355e-19
  26.1000000       1.02528e-19       1.02528e-19
  26.2000000       1.03702e-19       1.03702e-19
  26.3000000       1.04877e-19       1.04877e-19
  26.4000000       1.06088e-19       1.06088e-19
  26.5000000       1.07311e-19       1.07311e-19
  26.6000000       1.08534e-19       1.08534e-19
  26.7000000       1.09758e-19       1.09758e-19
  26.8000000       1.10981e-19       1.10981e-19
  26.9000000       1.12231e-19       1.12231e-19
  27.0000000       1.13512e-19       1.13512e-19
  27.1000000       1.14793e-19       1.14793e-19
  27.2000000       1.16074e-19       1.16074e-19
  27.3000000       1.17355e-19       1.17355e-19
  27.4000000       1.18641e-19       1.18641e-19
  27.5000000       1.19954e-19       1.19954e-19
  27.6000000       1.21272e-19       1.21272e-19
  27.7000000       1.22589e-19       1.22589e-19
  27.8000000       1.23907e-19       1.23907e-19
  27.9000000       1.25224e-19       1.25224e-19
  28.0000000       1.26569e-19       1.26569e-19
  28.1000000       1.27941e-19       1.27941e-19
  28.2000000       1.29313e-19       1.29313e-19
  28.3000000       1.30685e-19       1.30685e-19
  28.4000000       1.32057e-19       1.32057e-19
  28.5000000       1.33434e-19       1.33434e-19
  28.6000000       1.34863e-19       1.34863e-19
  28.7000000       1.36306e-19       1.36306e-19
  28.8000000       1.37750e-19       1.37750e-19
  28.9000000       1.39194e-19       1.39194e-19
  29.0000000       1.40637e-19       1.40637e-19
  29.1000000       1.42090e-19       1.42090e-19
  29.2000000       1.43578e-19       1.43578e-19
  29.3000000       1.45071e-19       1.45071e-19
  29.4000000       1.46563e-19       1.46563e-19
  29.5000000       1.48056e-19       1.48056e-19
  29.6000000       1.49548e-19       1.49548e-19
  29.7000000       1.51058e-19       1.51058e-19
  29.8000000       1.52614e-19       1.52614e-19
  29.9000000       1.54172e-19       1.54172e-19
  30.0000000       1.55730e-19       1.55730e-19
  30.1000000       1.57288e-19       1.57288e-19
  30.2000000       1.58846e-19       1.58846e-19
  30.3000000       1.60416e-19       1.60416e-19
  30.4000000       1.62016e-19       1.62016e-19
  30.5000000       1.63617e-19       1.63617e-19
  30.6000000       1.65219e-19       1.65219e-19
  30.7000000       1.66820e-19       1.66820e-19
  30.8000000       1.68422e-19       1.68422e-19
  30.9000000       1.70041e-19       1.70041e-19
  31.0000000       1.71732e-19       1.71732e-19
  31.1000000       1.73430e-19       1.73430e-19
  31.2000000       1.75127e-19       1.75127e-19
  31.3000000       1.76825e-19       1.76825e-19
  31.4000000       1.78523e-19       1.78523e-19
  31.5000000       1.80225e-19       1.80225e-19
  31.6000000       1.81967e-19       1.81967e-19
  31.7000000       1.83721e-19       1.83721e-19
  31.8000000       1.85474e-19       1.85474e-19
  31.9000000       1.87228e-19       1.87228e-19
  32.0000000       1.88982e-19       1.88982e-19
  32.1000000       1.90735e-19       1.90735e-19
  32.2000000       1.92525e-19       1.92525e-19
  32.3000000       1.94349e-19       1.94349e-19
  32.4000000       1.96173e-19       1.96173e-19
  32.5000000       1.97998e-19       1.97998e-19
  32.6000000       1.99822e-19       1.99822e-19
  32.7000000       2.01646e-19       2.01646e-19
  32.8000000       2.03479e-19       2.03479e-19
  32.9000000       2.05362e-19       2.05362e-19
  33.0000000       2.07254e-19       2.07254e-19
  33.1000000       2.09145e-19       2.09145e-19
  33.2000000       2.11036e-19       2.11036e-19
  33.3000000       2.12927e-19       2.12927e-19
  33.4000000       2.14818e-19       2.14818e-19
  33.5000000       2.16741e-19       2.16741e-19
  33.6000000       2.18712e-19       2.18712e-19
  33.7000000       2.20683e-19       2.20683e-19
  33.8000000       2.22655e-19       2.22655e-19
  33.9000000       2.24627e-19       2.24627e-19
  34.0000000       2.26598e-19       2.26598e-19
  34.1000000       2.28570e-19       2.28570e-19
  34.2000000       2.30600e-19       2.30600e-19
  34.3000000       2.32664e-19       2.32664e-19
  34.4000000       2.34729e-19       2.34729e-19
  34.5000000       2.36794e-19       2.36794e-19
  34.6000000       2.38859e-19       2.38859e-19
  34.7000000       2.40924e-19       2.40924e-19
  34.8000000       2.42991e-19       2.42991e-19
  34.9000000       2.45106e-19       2.45106e-19
  35.0000000       2.47243e-19       2.47243e-19
  35.1000000       2.49381e-19       2.49381e-19
  35.2000000       2.51518e-19       2.51518e-19
  35.3000000       2.53655e-19       2.53655e-19
  35.4000000       2.55792e-19       2.55792e-19
  35.5000000       2.57900e-19       2.57900e-19
  35.6000000       2.58996e-19       2.58996e-19
  35.7000000       2.59586e-19       2.59586e-19
  35.8000000       2.60176e-19       2.60176e-19
  35.9000000       2.60766e-19       2.60766e-19
  36.0000000       2.61356e-19       2.61356e-19
  36.1000000       2.61946e-19       2.61946e-19
  36.2000000       2.62537e-19       2.62537e-19
  36.3000000       2.63127e-19       2.63127e-19
  36.4000000       2.63717e-19       2.63717e-19
  36.5000000       2.64307e-19       2.64307e-19
  36.6000000       2.64897e-19       2.64897e-19
  36.7000000       2.65487e-19       2.65487e-19
  36.8000000       2.66077e-19       2.66077e-19
  36.9000000       2.66668e-19       2.66668e-19
  37.0000000       2.67258e-19       2.67258e-19
  37.1000000       2.67848e-19       2.67848e-19
  37.2000000       2.68438e-19       2.68438e-19
  37.3000000       2.69028e-19       2.69028e-19
  37.4000000       2.69618e-19       2.69618e-19
  37.5000000       2.70208e-19       2.70208e-19
  37.6000000       2.70799e-19       2.70799e-19
  37.7000000       2.71389e-19       2.71389e-19
  37.8000000       2.71979e-19       2.71979e-19
  37.9000000       2.72569e-19       2.72569e-19
  38.0000000       2.73159e-19       2.73159e-19
  38.1000000       2.73749e-19       2.73749e-19
  38.2000000       2.74340e-19       2.74340e-19
  38.3000000       2.74930e-19       2.74930e-19
  38.4000000       2.75431e-19       2.75431e-19
  38.5000000       2.75600e-19       2.75600e-19
  38.6000000       2.75736e-19       2.75736e-19
  38.7000000       2.75873e-19       2.75873e-19
  38.8000000       2.76009e-19       2.76009e-19
  38.9000000       2.76145e-19       2.76145e-19
  39.0000000       2.76281e-19       2.76281e-19
  39.1000000       2.76418e-19       2.76418e-19
  39.2000000       2.76554e-19       2.76554e-19
  39.3000000       2.76690e-19       2.76690e-19
  39.4000000       2.76827e-19       2.76827e-19
  39.5000000       2.76963e-19       2.76963e-19
  39.6000000       2.77099e-19       2.77099e-19
  39.7000000       2.77236e-19       2.77236e-19
  39.8000000       2.77372e-19       2.77372e-19
  39.9000000       2.77508e-19       2.77508e-19
  40.0000000       2.77645e-19       2.77645e-19
  40.1000000       2.77781e-19       2.77781e-19
  40.2000000       2.77917e-19       2.77917e-19
  40.3000000       2.78054e-19       2.78054e-19
  40.4000000       2.78190e-19       2.78190e-19
  40.5000000       2.78326e-19       2.78326e-19
  40.6000000       2.78462e-19       2.78462e-19
  40.7000000       2.78599e-19       2.78599e-19
  40.8000000       2.78735e-19       2.78735e-19
  40.9000000       2.78871e-19       2.78871e-19
  41.0000000       2.79008e-19       2.79008e-19
  41.1000000       2.79144e-19       2.79144e-19
  41.2000000       2.79280e-19       2.79280e-19
  41.3000000       2.79417e-19       2.79417e-19
  41.4000000       2.79553e-19       2.79553e-19
  41.5000000       2.79689e-19       2.79689e-19
  41.6000000       2.79826e-19       2.79826e-19
  41.7000000       2.79962e-19       2.79962e-19
  41.8000000       2.80098e-19       2.80098e-19
  41.9000000       2.80235e-19       2.80235e-19
  42.0000000       2.80371e-19       2.80371e-19
  42.1000000       2.80507e-19       2.80507e-19
  42.2000000       2.80644e-19       2.80644e-19
  42.3000000       2.80780e-19       2.80780e-19
  42.4000000       2.80916e-19       2.80916e-19
  42.5000000       2.81052e-19       2.81052e-19
  42.6000000       2.81189e-19       2.81189e-19
  42.7000000       2.81325e-19       2.81325e-19
  42.8000000       2.81461e-19       2.81461e-19
  42.9000000       2.81598e-19       2.81598e-19
  43.0000000       2.81734e-19       2.81734e-19
  43.1000000       2.81870e-19       2.81870e-19
  43.2000000       2.82007e-19       2.82007e-19
  43.3000000       2.82143e-19       2.82143e-19
  43.4000000       2.82279e-19       2.82279e-19
  43.5000000       2.82416e-19       2.82416e-19
  43.6000000       2.82552e-19       2.82552e-19
  43.7000000       2.82809e-19       2.82809e-19
  43.8000000       2.83200e-19       2.83200e-19
  43.9000000       2.83591e-19       2.83591e-19
  44.0000000       2.83982e-19       2.83982e-19
  44.1000000       2.84372e-19       2.84372e-19
  44.2000000       2.84763e-19       2.84763e-19
  44.3000000       2.85154e-19       2.85154e-19
  44.4000000       2.85545e-19       2.85545e-19
  44.5000000       2.85935e-19       2.85935e-19
  44.6000000       2.86326e-19       2.86326e-19
  44.7000000       2.86717e-19       2.86717e-19
  44.8000000       2.87108e-19       2.87108e-19
  44.9000000       2.87498e-19       2.87498e-19
  45.0000000       2.87889e-19       2.87889e-19
  45.1000000       2.88280e-19       2.88280e-19
  45.2000000       2.88671e-19       2.88671e-19
  45.3000000       2.89061e-19       2.89061e-19
  45.4000000       2.89452e-19       2.89452e-19
  45.5000000       2.89843e-19       2.89843e-19
  45.6000000       2.90234e-19       2.90234e-19
  45.7000000       2.90624e-19       2.90624e-19
  45.8000000       2.91015e-19       2.91015e-19
  45.9000000       2.91406e-19       2.91406e-19
  46.0000000       2.91797e-19       2.91797e-19
  46.1000000       2.92187e-19       2.92187e-19
  46.2000000       2.92578e-19       2.92578e-19
  46.3000000       2.92969e-19       2.92969e-19
  46.4000000       2.93360e-19       2.93360e-19
  46.5000000       2.93750e-19       2.93750e-19
  46.6000000       2.94141e-19       2.94141e-19
  46.7000000       2.94532e-19       2.94532e-19
  46.8000000       2.94923e-19       2.94923e-19
  46.9000000       2.95313e-19       2.95313e-19
  47.0000000       2.95704e-19       2.95704e-19
  47.1000000       2.96095e-19       2.96095e-19
  47.2000000       2.96486e-19       2.96486e-19
  47.3000000       2.96876e-19       2.96876e-19
  47.4000000       2.97267e-19       2.97267e-19
  47.5000000       2.97658e-19       2.97658e-19
  47.6000000       2.98049e-19       2.98049e-19
  47.7000000       2.98439e-19       2.98439e-19
  47.8000000       2.98830e-19       2.98830e-19
  47.9000000       2.99221e-19       2.99221e-19
  48.0000000       2.99612e-19       2.99612e-19
  48.1000000       3.00002e-19       3.00002e-19
  48.2000000       3.00393e-19       3.00393e-19
