# b'N2 cross sections\nAlan Heays 2015-09-25\nReference: heays2014a, shaw_etal1992, samson1987\nTex = 100K # excitation temperature\nb   = 1km.s-1 # Doppler width\nphotoabsorption   -- Photoabsorption cross section (cm2)\nphotodissociation -- Photodissociation cross section (cm2)\nphotoionisation   -- Photoionisation cross section (cm2)'
# 
# wavelength   photoabsorption photodissociation   photoionisation
  11.6000000       1.79821e-18       0.00000e+00       1.79821e-18
  11.7000000       1.82857e-18       0.00000e+00       1.82857e-18
  11.8000000       1.86905e-18       0.00000e+00       1.86905e-18
  11.9000000       1.90952e-18       0.00000e+00       1.90952e-18
  12.0000000       1.94994e-18       0.00000e+00       1.94994e-18
  12.1000000       1.99000e-18       0.00000e+00       1.99000e-18
  12.2000000       2.03000e-18       0.00000e+00       2.03000e-18
  12.3000000       2.07000e-18       0.00000e+00       2.07000e-18
  12.4000000       2.11000e-18       0.00000e+00       2.11000e-18
  12.5000000       2.15050e-18       0.00000e+00       2.15050e-18
  12.6000000       2.19400e-18       0.00000e+00       2.19400e-18
  12.7000000       2.23800e-18       0.00000e+00       2.23800e-18
  12.8000000       2.28200e-18       0.00000e+00       2.28200e-18
  12.9000000       2.32600e-18       0.00000e+00       2.32600e-18
  13.0000000       2.36925e-18       0.00000e+00       2.36925e-18
  13.1000000       2.40800e-18       0.00000e+00       2.40800e-18
  13.2000000       2.44600e-18       0.00000e+00       2.44600e-18
  13.3000000       2.48400e-18       0.00000e+00       2.48400e-18
  13.4000000       2.52200e-18       0.00000e+00       2.52200e-18
  13.5000000       2.56050e-18       0.00000e+00       2.56050e-18
  13.6000000       2.60200e-18       0.00000e+00       2.60200e-18
  13.7000000       2.64400e-18       0.00000e+00       2.64400e-18
  13.8000000       2.68600e-18       0.00000e+00       2.68600e-18
  13.9000000       2.72800e-18       0.00000e+00       2.72800e-18
  14.0000000       2.77000e-18       0.00000e+00       2.77000e-18
  14.1000000       2.81200e-18       0.00000e+00       2.81200e-18
  14.2000000       2.85400e-18       0.00000e+00       2.85400e-18
  14.3000000       2.89600e-18       0.00000e+00       2.89600e-18
  14.4000000       2.93800e-18       0.00000e+00       2.93800e-18
  14.5000000       2.98050e-18       0.00000e+00       2.98050e-18
  14.6000000       3.02600e-18       0.00000e+00       3.02600e-18
  14.7000000       3.07200e-18       0.00000e+00       3.07200e-18
  14.8000000       3.11800e-18       0.00000e+00       3.11800e-18
  14.9000000       3.16400e-18       0.00000e+00       3.16400e-18
  15.0000000       3.21050e-18       0.00000e+00       3.21050e-18
  15.1000000       3.26000e-18       0.00000e+00       3.26000e-18
  15.2000000       3.31000e-18       0.00000e+00       3.31000e-18
  15.3000000       3.36000e-18       0.00000e+00       3.36000e-18
  15.4000000       3.41000e-18       0.00000e+00       3.41000e-18
  15.5000000       3.46000e-18       0.00000e+00       3.46000e-18
  15.6000000       3.51000e-18       0.00000e+00       3.51000e-18
  15.7000000       3.56000e-18       0.00000e+00       3.56000e-18
  15.8000000       3.61000e-18       0.00000e+00       3.61000e-18
  15.9000000       3.66000e-18       0.00000e+00       3.66000e-18
  16.0000000       3.71025e-18       0.00000e+00       3.71025e-18
  16.1000000       3.76200e-18       0.00000e+00       3.76200e-18
  16.2000000       3.81400e-18       0.00000e+00       3.81400e-18
  16.3000000       3.86600e-18       0.00000e+00       3.86600e-18
  16.4000000       3.91800e-18       0.00000e+00       3.91800e-18
  16.5000000       3.97025e-18       0.00000e+00       3.97025e-18
  16.6000000       4.02400e-18       0.00000e+00       4.02400e-18
  16.7000000       4.07800e-18       0.00000e+00       4.07800e-18
  16.8000000       4.13200e-18       0.00000e+00       4.13200e-18
  16.9000000       4.18600e-18       0.00000e+00       4.18600e-18
  17.0000000       4.24000e-18       0.00000e+00       4.24000e-18
  17.1000000       4.29400e-18       0.00000e+00       4.29400e-18
  17.2000000       4.34800e-18       0.00000e+00       4.34800e-18
  17.3000000       4.40200e-18       0.00000e+00       4.40200e-18
  17.4000000       4.45600e-18       0.00000e+00       4.45600e-18
  17.5000000       4.51075e-18       0.00000e+00       4.51075e-18
  17.6000000       4.57000e-18       0.00000e+00       4.57000e-18
  17.7000000       4.63000e-18       0.00000e+00       4.63000e-18
  17.8000000       4.69000e-18       0.00000e+00       4.69000e-18
  17.9000000       4.75000e-18       0.00000e+00       4.75000e-18
  18.0000000       4.81125e-18       0.00000e+00       4.81125e-18
  18.1000000       4.88000e-18       0.00000e+00       4.88000e-18
  18.2000000       4.95000e-18       0.00000e+00       4.95000e-18
  18.3000000       5.02000e-18       0.00000e+00       5.02000e-18
  18.4000000       5.09000e-18       0.00000e+00       5.09000e-18
  18.5000000       5.15975e-18       0.00000e+00       5.15975e-18
  18.6000000       5.22800e-18       0.00000e+00       5.22800e-18
  18.7000000       5.29600e-18       0.00000e+00       5.29600e-18
  18.8000000       5.36400e-18       0.00000e+00       5.36400e-18
  18.9000000       5.43200e-18       0.00000e+00       5.43200e-18
  19.0000000       5.49975e-18       0.00000e+00       5.49975e-18
  19.1000000       5.56600e-18       0.00000e+00       5.56600e-18
  19.2000000       5.63200e-18       0.00000e+00       5.63200e-18
  19.3000000       5.69800e-18       0.00000e+00       5.69800e-18
  19.4000000       5.76400e-18       0.00000e+00       5.76400e-18
  19.5000000       5.83100e-18       0.00000e+00       5.83100e-18
  19.6000000       5.90400e-18       0.00000e+00       5.90400e-18
  19.7000000       5.97800e-18       0.00000e+00       5.97800e-18
  19.8000000       6.05200e-18       0.00000e+00       6.05200e-18
  19.9000000       6.12600e-18       0.00000e+00       6.12600e-18
  20.0000000       6.20025e-18       0.00000e+00       6.20025e-18
  20.1000000       6.27600e-18       0.00000e+00       6.27600e-18
  20.2000000       6.35200e-18       0.00000e+00       6.35200e-18
  20.3000000       6.42800e-18       0.00000e+00       6.42800e-18
  20.4000000       6.50400e-18       0.00000e+00       6.50400e-18
  20.5000000       6.58075e-18       0.00000e+00       6.58075e-18
  20.6000000       6.66200e-18       0.00000e+00       6.66200e-18
  20.7000000       6.74400e-18       0.00000e+00       6.74400e-18
  20.8000000       6.82600e-18       0.00000e+00       6.82600e-18
  20.9000000       6.90800e-18       0.00000e+00       6.90800e-18
  21.0000000       6.99000e-18       0.00000e+00       6.99000e-18
  21.1000000       7.07200e-18       0.00000e+00       7.07200e-18
  21.2000000       7.15400e-18       0.00000e+00       7.15400e-18
  21.3000000       7.23600e-18       0.00000e+00       7.23600e-18
  21.4000000       7.31800e-18       0.00000e+00       7.31800e-18
  21.5000000       7.40100e-18       0.00000e+00       7.40100e-18
  21.6000000       7.49000e-18       0.00000e+00       7.49000e-18
  21.7000000       7.58000e-18       0.00000e+00       7.58000e-18
  21.8000000       7.67000e-18       0.00000e+00       7.67000e-18
  21.9000000       7.76000e-18       0.00000e+00       7.76000e-18
  22.0000000       7.84950e-18       0.00000e+00       7.84950e-18
  22.1000000       7.93600e-18       0.00000e+00       7.93600e-18
  22.2000000       8.02200e-18       0.00000e+00       8.02200e-18
  22.3000000       8.10800e-18       0.00000e+00       8.10800e-18
  22.4000000       8.19400e-18       0.00000e+00       8.19400e-18
  22.5000000       8.28000e-18       0.00000e+00       8.28000e-18
  22.6000000       8.36600e-18       0.00000e+00       8.36600e-18
  22.7000000       8.45200e-18       0.00000e+00       8.45200e-18
  22.8000000       8.53800e-18       0.00000e+00       8.53800e-18
  22.9000000       8.62400e-18       0.00000e+00       8.62400e-18
  23.0000000       8.70950e-18       0.00000e+00       8.70950e-18
  23.1000000       8.79200e-18       0.00000e+00       8.79200e-18
  23.2000000       8.87400e-18       0.00000e+00       8.87400e-18
  23.3000000       8.95600e-18       0.00000e+00       8.95600e-18
  23.4000000       9.03800e-18       0.00000e+00       9.03800e-18
  23.5000000       9.11925e-18       0.00000e+00       9.11925e-18
  23.6000000       9.19600e-18       0.00000e+00       9.19600e-18
  23.7000000       9.27200e-18       0.00000e+00       9.27200e-18
  23.8000000       9.34800e-18       0.00000e+00       9.34800e-18
  23.9000000       9.42400e-18       0.00000e+00       9.42400e-18
  24.0000000       9.49800e-18       0.00000e+00       9.49800e-18
  24.1000000       9.56000e-18       0.00000e+00       9.56000e-18
  24.2000000       9.62000e-18       0.00000e+00       9.62000e-18
  24.3000000       9.68000e-18       0.00000e+00       9.68000e-18
  24.4000000       9.74000e-18       0.00000e+00       9.74000e-18
  24.5000000       9.79800e-18       0.00000e+00       9.79800e-18
  24.6000000       9.84400e-18       0.00000e+00       9.84400e-18
  24.7000000       9.88800e-18       0.00000e+00       9.88800e-18
  24.8000000       9.93200e-18       0.00000e+00       9.93200e-18
  24.9000000       9.97600e-18       0.00000e+00       9.97600e-18
  25.0000000       1.00185e-17       0.00000e+00       1.00185e-17
  25.1000000       1.00520e-17       0.00000e+00       1.00520e-17
  25.2000000       1.00840e-17       0.00000e+00       1.00840e-17
  25.3000000       1.01160e-17       0.00000e+00       1.01160e-17
  25.4000000       1.01480e-17       0.00000e+00       1.01480e-17
  25.5000000       1.01785e-17       0.00000e+00       1.01785e-17
  25.6000000       1.02000e-17       0.00000e+00       1.02000e-17
  25.7000000       1.02200e-17       0.00000e+00       1.02200e-17
  25.8000000       1.02400e-17       0.00000e+00       1.02400e-17
  25.9000000       1.02600e-17       0.00000e+00       1.02600e-17
  26.0000000       1.02805e-17       0.00000e+00       1.02805e-17
  26.1000000       1.03040e-17       0.00000e+00       1.03040e-17
  26.2000000       1.03280e-17       0.00000e+00       1.03280e-17
  26.3000000       1.03520e-17       0.00000e+00       1.03520e-17
  26.4000000       1.03760e-17       0.00000e+00       1.03760e-17
  26.5000000       1.03995e-17       0.00000e+00       1.03995e-17
  26.6000000       1.04200e-17       0.00000e+00       1.04200e-17
  26.7000000       1.04400e-17       0.00000e+00       1.04400e-17
  26.8000000       1.04600e-17       0.00000e+00       1.04600e-17
  26.9000000       1.04800e-17       0.00000e+00       1.04800e-17
  27.0000000       1.05003e-17       0.00000e+00       1.05003e-17
  27.1000000       1.05220e-17       0.00000e+00       1.05220e-17
  27.2000000       1.05440e-17       0.00000e+00       1.05440e-17
  27.3000000       1.05660e-17       0.00000e+00       1.05660e-17
  27.4000000       1.05880e-17       0.00000e+00       1.05880e-17
  27.5000000       1.06115e-17       0.00000e+00       1.06115e-17
  27.6000000       1.06440e-17       0.00000e+00       1.06440e-17
  27.7000000       1.06780e-17       0.00000e+00       1.06780e-17
  27.8000000       1.07120e-17       0.00000e+00       1.07120e-17
  27.9000000       1.07460e-17       0.00000e+00       1.07460e-17
  28.0000000       1.07793e-17       0.00000e+00       1.07793e-17
  28.1000000       1.08080e-17       0.00000e+00       1.08080e-17
  28.2000000       1.08360e-17       0.00000e+00       1.08360e-17
  28.3000000       1.08640e-17       0.00000e+00       1.08640e-17
  28.4000000       1.08920e-17       0.00000e+00       1.08920e-17
  28.5000000       1.09210e-17       0.00000e+00       1.09210e-17
  28.6000000       1.09560e-17       0.00000e+00       1.09560e-17
  28.7000000       1.09920e-17       0.00000e+00       1.09920e-17
  28.8000000       1.10280e-17       0.00000e+00       1.10280e-17
  28.9000000       1.10640e-17       0.00000e+00       1.10640e-17
  29.0000000       1.10998e-17       0.00000e+00       1.10998e-17
  29.1000000       1.11340e-17       0.00000e+00       1.11340e-17
  29.2000000       1.11680e-17       0.00000e+00       1.11680e-17
  29.3000000       1.12020e-17       0.00000e+00       1.12020e-17
  29.4000000       1.12360e-17       0.00000e+00       1.12360e-17
  29.5000000       1.12715e-17       0.00000e+00       1.12715e-17
  29.6000000       1.13160e-17       0.00000e+00       1.13160e-17
  29.7000000       1.13620e-17       0.00000e+00       1.13620e-17
  29.8000000       1.14080e-17       0.00000e+00       1.14080e-17
  29.9000000       1.14540e-17       0.00000e+00       1.14540e-17
  30.0000000       1.15008e-17       0.00000e+00       1.15008e-17
  30.1000000       1.15526e-17       0.00000e+00       1.15526e-17
  30.2000000       1.16053e-17       0.00000e+00       1.16053e-17
  30.3000000       1.16579e-17       0.00000e+00       1.16579e-17
  30.4000000       1.17103e-17       0.00000e+00       1.17103e-17
  30.5000000       1.17619e-17       0.00000e+00       1.17619e-17
  30.6000000       1.18135e-17       0.00000e+00       1.18135e-17
  30.7000000       1.18652e-17       0.00000e+00       1.18652e-17
  30.8000000       1.19168e-17       0.00000e+00       1.19168e-17
  30.9000000       1.19684e-17       0.00000e+00       1.19684e-17
  31.0000000       1.20223e-17       0.00000e+00       1.20223e-17
  31.1000000       1.20900e-17       0.00000e+00       1.20900e-17
  31.2000000       1.21600e-17       0.00000e+00       1.21600e-17
  31.3000000       1.22300e-17       0.00000e+00       1.22300e-17
  31.4000000       1.23000e-17       0.00000e+00       1.23000e-17
  31.5000000       1.23703e-17       0.00000e+00       1.23703e-17
  31.6000000       1.24420e-17       0.00000e+00       1.24420e-17
  31.7000000       1.25140e-17       0.00000e+00       1.25140e-17
  31.8000000       1.25860e-17       0.00000e+00       1.25860e-17
  31.9000000       1.26580e-17       0.00000e+00       1.26580e-17
  32.0000000       1.27310e-17       0.00000e+00       1.27310e-17
  32.1000000       1.28100e-17       0.00000e+00       1.28100e-17
  32.2000000       1.28900e-17       0.00000e+00       1.28900e-17
  32.3000000       1.29700e-17       0.00000e+00       1.29700e-17
  32.4000000       1.30500e-17       0.00000e+00       1.30500e-17
  32.5000000       1.31305e-17       0.00000e+00       1.31305e-17
  32.6000000       1.32140e-17       0.00000e+00       1.32140e-17
  32.7000000       1.32980e-17       0.00000e+00       1.32980e-17
  32.8000000       1.33820e-17       0.00000e+00       1.33820e-17
  32.9000000       1.34660e-17       0.00000e+00       1.34660e-17
  33.0000000       1.35495e-17       0.00000e+00       1.35495e-17
  33.1000000       1.36300e-17       0.00000e+00       1.36300e-17
  33.2000000       1.37100e-17       0.00000e+00       1.37100e-17
  33.3000000       1.37900e-17       0.00000e+00       1.37900e-17
  33.4000000       1.38700e-17       0.00000e+00       1.38700e-17
  33.5000000       1.39508e-17       0.00000e+00       1.39508e-17
  33.6000000       1.40360e-17       0.00000e+00       1.40360e-17
  33.7000000       1.41220e-17       0.00000e+00       1.41220e-17
  33.8000000       1.42080e-17       0.00000e+00       1.42080e-17
  33.9000000       1.42940e-17       0.00000e+00       1.42940e-17
  34.0000000       1.43803e-17       0.00000e+00       1.43803e-17
  34.1000000       1.44680e-17       0.00000e+00       1.44680e-17
  34.2000000       1.45560e-17       0.00000e+00       1.45560e-17
  34.3000000       1.46440e-17       0.00000e+00       1.46440e-17
  34.4000000       1.47320e-17       0.00000e+00       1.47320e-17
  34.5000000       1.48205e-17       0.00000e+00       1.48205e-17
  34.6000000       1.49120e-17       0.00000e+00       1.49120e-17
  34.7000000       1.50040e-17       0.00000e+00       1.50040e-17
  34.8000000       1.50960e-17       0.00000e+00       1.50960e-17
  34.9000000       1.51880e-17       0.00000e+00       1.51880e-17
  35.0000000       1.52798e-17       0.00000e+00       1.52798e-17
  35.1000000       1.53700e-17       0.00000e+00       1.53700e-17
  35.2000000       1.54600e-17       0.00000e+00       1.54600e-17
  35.3000000       1.55500e-17       0.00000e+00       1.55500e-17
  35.4000000       1.56400e-17       0.00000e+00       1.56400e-17
  35.5000000       1.57300e-17       0.00000e+00       1.57300e-17
  35.6000000       1.58200e-17       0.00000e+00       1.58200e-17
  35.7000000       1.59100e-17       0.00000e+00       1.59100e-17
  35.8000000       1.60000e-17       0.00000e+00       1.60000e-17
  35.9000000       1.60900e-17       0.00000e+00       1.60900e-17
  36.0000000       1.61800e-17       0.00000e+00       1.61800e-17
  36.1000000       1.62700e-17       0.00000e+00       1.62700e-17
  36.2000000       1.63600e-17       0.00000e+00       1.63600e-17
  36.3000000       1.64500e-17       0.00000e+00       1.64500e-17
  36.4000000       1.65400e-17       0.00000e+00       1.65400e-17
  36.5000000       1.66300e-17       0.00000e+00       1.66300e-17
  36.6000000       1.67200e-17       0.00000e+00       1.67200e-17
  36.7000000       1.68100e-17       0.00000e+00       1.68100e-17
  36.8000000       1.69000e-17       0.00000e+00       1.69000e-17
  36.9000000       1.69900e-17       0.00000e+00       1.69900e-17
  37.0000000       1.70806e-17       0.00000e+00       1.70806e-17
  37.1000000       1.71750e-17       0.00000e+00       1.71750e-17
  37.2000000       1.72700e-17       0.00000e+00       1.72700e-17
  37.3000000       1.73650e-17       0.00000e+00       1.73650e-17
  37.4000000       1.74600e-17       0.00000e+00       1.74600e-17
  37.5000000       1.75550e-17       0.00000e+00       1.75550e-17
  37.6000000       1.76500e-17       0.00000e+00       1.76500e-17
  37.7000000       1.77450e-17       0.00000e+00       1.77450e-17
  37.8000000       1.78400e-17       0.00000e+00       1.78400e-17
  37.9000000       1.79350e-17       0.00000e+00       1.79350e-17
  38.0000000       1.80309e-17       0.00000e+00       1.80309e-17
  38.1000000       1.81320e-17       0.00000e+00       1.81320e-17
  38.2000000       1.82340e-17       0.00000e+00       1.82340e-17
  38.3000000       1.83360e-17       0.00000e+00       1.83360e-17
  38.4000000       1.84380e-17       0.00000e+00       1.84380e-17
  38.5000000       1.85400e-17       0.00000e+00       1.85400e-17
  38.6000000       1.86420e-17       0.00000e+00       1.86420e-17
  38.7000000       1.87440e-17       0.00000e+00       1.87440e-17
  38.8000000       1.88460e-17       0.00000e+00       1.88460e-17
  38.9000000       1.89480e-17       0.00000e+00       1.89480e-17
  39.0000000       1.90500e-17       0.00000e+00       1.90500e-17
  39.1000000       1.91520e-17       0.00000e+00       1.91520e-17
  39.2000000       1.92540e-17       0.00000e+00       1.92540e-17
  39.3000000       1.93560e-17       0.00000e+00       1.93560e-17
  39.4000000       1.94580e-17       0.00000e+00       1.94580e-17
  39.5000000       1.95600e-17       0.00000e+00       1.95600e-17
  39.6000000       1.96620e-17       0.00000e+00       1.96620e-17
  39.7000000       1.97640e-17       0.00000e+00       1.97640e-17
  39.8000000       1.98660e-17       0.00000e+00       1.98660e-17
  39.9000000       1.99680e-17       0.00000e+00       1.99680e-17
  40.0000000       2.00691e-17       0.00000e+00       2.00691e-17
  40.1000000       2.01650e-17       0.00000e+00       2.01650e-17
  40.2000000       2.02600e-17       0.00000e+00       2.02600e-17
  40.3000000       2.03550e-17       0.00000e+00       2.03550e-17
  40.4000000       2.04500e-17       0.00000e+00       2.04500e-17
  40.5000000       2.05450e-17       0.00000e+00       2.05450e-17
  40.6000000       2.06400e-17       0.00000e+00       2.06400e-17
  40.7000000       2.07350e-17       0.00000e+00       2.07350e-17
