# b'NH2CHO cross sections\nAlan Heays 2015-09-30\nReference: gingell1997, leach2010\nphotoabsorption   -- Photoabsorption cross section (cm2)\nphotodissociation -- Photodissociation cross section (cm2)\nphotoionisation   -- Photoionisation cross section (cm2)'
# 
# wavelength   photoabsorption photodissociation   photoionisation
  80.1000000       8.10381e-17       0.00000e+00       8.10381e-17
  80.2000000       8.06131e-17       0.00000e+00       8.06131e-17
  80.3000000       8.01130e-17       0.00000e+00       8.01130e-17
  80.4000000       7.96165e-17       0.00000e+00       7.96165e-17
  80.5000000       7.90458e-17       0.00000e+00       7.90458e-17
  80.6000000       7.84250e-17       0.00000e+00       7.84250e-17
  80.7000000       7.80937e-17       0.00000e+00       7.80937e-17
  80.8000000       7.80419e-17       0.00000e+00       7.80419e-17
  80.9000000       7.76495e-17       0.00000e+00       7.76495e-17
  81.0000000       7.69084e-17       0.00000e+00       7.69084e-17
  81.1000000       7.59906e-17       0.00000e+00       7.59906e-17
  81.2000000       7.50430e-17       0.00000e+00       7.50430e-17
  81.3000000       7.42278e-17       0.00000e+00       7.42278e-17
  81.4000000       7.33745e-17       0.00000e+00       7.33745e-17
  81.5000000       7.22367e-17       0.00000e+00       7.22367e-17
  81.6000000       7.09662e-17       0.00000e+00       7.09662e-17
  81.7000000       7.00762e-17       0.00000e+00       7.00762e-17
  81.8000000       6.93145e-17       0.00000e+00       6.93145e-17
  81.9000000       6.85004e-17       0.00000e+00       6.85004e-17
  82.0000000       6.76116e-17       0.00000e+00       6.76116e-17
  82.1000000       6.66279e-17       0.00000e+00       6.66279e-17
  82.2000000       6.56174e-17       0.00000e+00       6.56174e-17
  82.3000000       6.48636e-17       0.00000e+00       6.48636e-17
  82.4000000       6.43074e-17       0.00000e+00       6.43074e-17
  82.5000000       6.40343e-17       0.00000e+00       6.40343e-17
  82.6000000       6.39565e-17       0.00000e+00       6.39565e-17
  82.7000000       6.39773e-17       0.00000e+00       6.39773e-17
  82.8000000       6.38728e-17       0.00000e+00       6.38728e-17
  82.9000000       6.33139e-17       0.00000e+00       6.33139e-17
  83.0000000       6.22333e-17       0.00000e+00       6.22333e-17
  83.1000000       6.11244e-17       0.00000e+00       6.11244e-17
  83.2000000       6.00449e-17       0.00000e+00       6.00449e-17
  83.3000000       5.87750e-17       0.00000e+00       5.87750e-17
  83.4000000       5.76263e-17       0.00000e+00       5.76263e-17
  83.5000000       5.65351e-17       0.00000e+00       5.65351e-17
  83.6000000       5.52883e-17       0.00000e+00       5.52883e-17
  83.7000000       5.44124e-17       0.00000e+00       5.44124e-17
  83.8000000       5.36543e-17       0.00000e+00       5.36543e-17
  83.9000000       5.28746e-17       0.00000e+00       5.28746e-17
  84.0000000       5.20386e-17       0.00000e+00       5.20386e-17
  84.1000000       5.11260e-17       0.00000e+00       5.11260e-17
  84.2000000       5.01761e-17       0.00000e+00       5.01761e-17
  84.3000000       4.91851e-17       0.00000e+00       4.91851e-17
  84.4000000       4.81799e-17       0.00000e+00       4.81799e-17
  84.5000000       4.72990e-17       0.00000e+00       4.72990e-17
  84.6000000       4.65732e-17       0.00000e+00       4.65732e-17
  84.7000000       4.59312e-17       0.00000e+00       4.59312e-17
  84.8000000       4.53766e-17       0.00000e+00       4.53766e-17
  84.9000000       4.48958e-17       0.00000e+00       4.48958e-17
  85.0000000       4.44263e-17       0.00000e+00       4.44263e-17
  85.1000000       4.39229e-17       0.00000e+00       4.39229e-17
  85.2000000       4.33878e-17       0.00000e+00       4.33878e-17
  85.3000000       4.28648e-17       0.00000e+00       4.28648e-17
  85.4000000       4.24544e-17       0.00000e+00       4.24544e-17
  85.5000000       4.20815e-17       0.00000e+00       4.20815e-17
  85.6000000       4.17154e-17       0.00000e+00       4.17154e-17
  85.7000000       4.12999e-17       0.00000e+00       4.12999e-17
  85.8000000       4.08805e-17       0.00000e+00       4.08805e-17
  85.9000000       4.05123e-17       0.00000e+00       4.05123e-17
  86.0000000       4.02822e-17       0.00000e+00       4.02822e-17
  86.1000000       4.00720e-17       0.00000e+00       4.00720e-17
  86.2000000       3.98532e-17       0.00000e+00       3.98532e-17
  86.3000000       3.95947e-17       0.00000e+00       3.95947e-17
  86.4000000       3.93080e-17       0.00000e+00       3.93080e-17
  86.5000000       3.90272e-17       0.00000e+00       3.90272e-17
  86.6000000       3.87935e-17       0.00000e+00       3.87935e-17
  86.7000000       3.86019e-17       0.00000e+00       3.86019e-17
  86.8000000       3.84184e-17       0.00000e+00       3.84184e-17
  86.9000000       3.82554e-17       0.00000e+00       3.82554e-17
  87.0000000       3.81256e-17       0.00000e+00       3.81256e-17
  87.1000000       3.79961e-17       0.00000e+00       3.79961e-17
  87.2000000       3.78527e-17       0.00000e+00       3.78527e-17
  87.3000000       3.76759e-17       0.00000e+00       3.76759e-17
  87.4000000       3.74945e-17       0.00000e+00       3.74945e-17
  87.5000000       3.73483e-17       0.00000e+00       3.73483e-17
  87.6000000       3.72004e-17       0.00000e+00       3.72004e-17
  87.7000000       3.70571e-17       0.00000e+00       3.70571e-17
  87.8000000       3.69347e-17       0.00000e+00       3.69347e-17
  87.9000000       3.69338e-17       0.00000e+00       3.69338e-17
  88.0000000       3.70263e-17       0.00000e+00       3.70263e-17
  88.1000000       3.71637e-17       0.00000e+00       3.71637e-17
  88.2000000       3.72865e-17       0.00000e+00       3.72865e-17
  88.3000000       3.73916e-17       0.00000e+00       3.73916e-17
  88.4000000       3.74945e-17       0.00000e+00       3.74945e-17
  88.5000000       3.76010e-17       0.00000e+00       3.76010e-17
  88.6000000       3.79006e-17       1.98836e-19       3.77018e-17
  88.7000000       3.80703e-17       3.08490e-19       3.77618e-17
  88.8000000       3.73340e-17       3.57418e-21       3.73305e-17
  88.9000000       3.81953e-17       1.19644e-19       3.80757e-17
  89.0000000       3.84903e-17       2.10926e-19       3.82793e-17
  89.1000000       3.83994e-17       6.74945e-21       3.83926e-17
  89.2000000       3.85993e-17       0.00000e+00       3.85993e-17
  89.3000000       3.83167e-17       3.90079e-22       3.83163e-17
  89.4000000       3.94509e-17       1.63646e-20       3.94345e-17
  89.5000000       3.94955e-17       4.79787e-21       3.94907e-17
  89.6000000       3.93883e-17       0.00000e+00       3.93883e-17
  89.7000000       3.92346e-17       4.65759e-22       3.92341e-17
  89.8000000       3.93561e-17       1.66954e-20       3.93394e-17
  89.9000000       3.95161e-17       3.82581e-20       3.94779e-17
  90.0000000       3.95098e-17       4.26279e-20       3.94672e-17
  90.1000000       3.89585e-17       0.00000e+00       3.89585e-17
  90.2000000       3.96221e-17       3.17269e-19       3.93049e-17
  90.3000000       4.05941e-17       5.03465e-19       4.00906e-17
  90.4000000       4.02593e-17       7.25899e-20       4.01867e-17
  90.5000000       4.01840e-17       1.66855e-20       4.01673e-17
  90.6000000       4.05189e-17       1.00894e-19       4.04180e-17
  90.7000000       4.07126e-17       6.17073e-20       4.06509e-17
  90.8000000       4.05756e-17       5.55415e-22       4.05750e-17
  90.9000000       4.02728e-17       0.00000e+00       4.02728e-17
  91.0000000       4.07891e-17       7.12712e-20       4.07178e-17
  91.1000000       4.15828e-17       7.61432e-19       4.08214e-17
  91.2000000       3.99056e-17       1.34364e-20       3.98922e-17
  91.3000000       4.01405e-17       0.00000e+00       4.01405e-17
  91.4000000       4.04253e-17       0.00000e+00       4.04253e-17
  91.5000000       4.08747e-17       0.00000e+00       4.08747e-17
  91.6000000       4.13515e-17       0.00000e+00       4.13515e-17
  91.7000000       4.10130e-17       0.00000e+00       4.10130e-17
  91.8000000       4.11377e-17       0.00000e+00       4.11377e-17
  91.9000000       4.15314e-17       0.00000e+00       4.15314e-17
  92.0000000       4.13682e-17       0.00000e+00       4.13682e-17
  92.1000000       4.11079e-17       0.00000e+00       4.11079e-17
  92.2000000       4.07795e-17       0.00000e+00       4.07795e-17
  92.3000000       4.06095e-17       0.00000e+00       4.06095e-17
  92.4000000       4.08787e-17       0.00000e+00       4.08787e-17
  92.5000000       4.16190e-17       1.79738e-21       4.16172e-17
  92.6000000       4.20805e-17       3.74878e-20       4.20430e-17
  92.7000000       4.22210e-17       2.71721e-19       4.19493e-17
  92.8000000       4.22939e-17       6.76898e-19       4.16170e-17
  92.9000000       4.23667e-17       1.08208e-18       4.12846e-17
  93.0000000       4.24395e-17       1.48725e-18       4.09523e-17
  93.1000000       4.25124e-17       1.89243e-18       4.06199e-17
  93.2000000       4.25761e-17       2.28759e-18       4.02885e-17
  93.3000000       4.19089e-17       1.90278e-18       4.00061e-17
  93.4000000       4.17245e-17       2.33093e-18       3.93936e-17
  93.5000000       4.12682e-17       2.63009e-18       3.86381e-17
  93.6000000       4.04923e-17       2.50589e-18       3.79865e-17
  93.7000000       4.05917e-17       3.13334e-18       3.74584e-17
  93.8000000       4.05407e-17       3.50882e-18       3.70319e-17
  93.9000000       3.99642e-17       3.20768e-18       3.67565e-17
  94.0000000       3.92868e-17       2.76614e-18       3.65206e-17
  94.1000000       4.03203e-17       4.06023e-18       3.62601e-17
  94.2000000       4.05273e-17       4.58079e-18       3.59465e-17
  94.3000000       3.88475e-17       3.24274e-18       3.56048e-17
  94.4000000       3.82343e-17       3.00103e-18       3.52332e-17
  94.5000000       3.82600e-17       3.40631e-18       3.48537e-17
  94.6000000       3.92375e-17       4.77285e-18       3.44646e-17
  94.7000000       3.84046e-17       4.36414e-18       3.40404e-17
  94.8000000       3.75410e-17       4.01843e-18       3.35225e-17
  94.9000000       3.72856e-17       4.28610e-18       3.29995e-17
  95.0000000       3.71104e-17       4.63159e-18       3.24788e-17
  95.1000000       3.72694e-17       5.22830e-18       3.20411e-17
  95.2000000       3.68793e-17       5.17762e-18       3.17017e-17
  95.3000000       3.67290e-17       5.37599e-18       3.13530e-17
  95.4000000       3.62807e-17       5.31888e-18       3.09618e-17
  95.5000000       3.56444e-17       5.08980e-18       3.05546e-17
  95.6000000       3.54325e-17       5.30004e-18       3.01325e-17
  95.7000000       3.51218e-17       5.43302e-18       2.96888e-17
  95.8000000       3.46832e-17       5.44722e-18       2.92360e-17
  95.9000000       3.41046e-17       5.31976e-18       2.87849e-17
  96.0000000       3.36442e-17       5.31814e-18       2.83260e-17
  96.1000000       3.32556e-17       5.38970e-18       2.78659e-17
  96.2000000       3.27358e-17       5.30368e-18       2.74321e-17
  96.3000000       3.22444e-17       5.22979e-18       2.70146e-17
  96.4000000       3.22781e-17       5.49385e-18       2.67842e-17
  96.5000000       3.19732e-17       5.37639e-18       2.65968e-17
  96.6000000       3.17304e-17       5.45670e-18       2.62737e-17
  96.7000000       3.15982e-17       5.66899e-18       2.59292e-17
  96.8000000       3.09161e-17       5.23009e-18       2.56860e-17
  96.9000000       3.00507e-17       4.55176e-18       2.54990e-17
  97.0000000       3.05701e-17       5.14884e-18       2.54212e-17
  97.1000000       3.13961e-17       6.01266e-18       2.53834e-17
  97.2000000       3.11662e-17       5.85131e-18       2.53149e-17
  97.3000000       3.02337e-17       5.12162e-18       2.51120e-17
  97.4000000       2.98071e-17       4.92760e-18       2.48795e-17
  97.5000000       2.96193e-17       4.97938e-18       2.46399e-17
  97.6000000       2.91522e-17       4.84347e-18       2.43088e-17
  97.7000000       2.86702e-17       4.72911e-18       2.39411e-17
  97.8000000       2.91809e-17       5.60300e-18       2.35779e-17
  97.9000000       2.82528e-17       4.96146e-18       2.32914e-17
  98.0000000       2.81807e-17       5.14189e-18       2.30388e-17
  98.1000000       2.84551e-17       5.66560e-18       2.27895e-17
  98.2000000       2.88098e-17       6.25436e-18       2.25555e-17
  98.3000000       2.94951e-17       7.11721e-18       2.23779e-17
  98.4000000       2.98370e-17       7.60907e-18       2.22279e-17
  98.5000000       2.97778e-17       7.69937e-18       2.20784e-17
  98.6000000       2.96093e-17       7.68291e-18       2.19264e-17
  98.7000000       2.94330e-17       7.68049e-18       2.17525e-17
  98.8000000       2.92549e-17       7.68115e-18       2.15738e-17
  98.9000000       2.91609e-17       7.75508e-18       2.14058e-17
  99.0000000       2.91425e-17       7.89495e-18       2.12475e-17
  99.1000000       2.91235e-17       8.03660e-18       2.10869e-17
  99.2000000       2.90700e-17       8.28735e-18       2.07826e-17
  99.3000000       2.87735e-17       8.30979e-18       2.04637e-17
  99.4000000       2.83490e-17       7.93479e-18       2.04142e-17
  99.5000000       2.82795e-17       7.86655e-18       2.04129e-17
  99.6000000       2.85141e-17       8.10111e-18       2.04130e-17
  99.7000000       2.87024e-17       8.29248e-18       2.04099e-17
  99.8000000       2.87616e-17       8.36131e-18       2.04003e-17
  99.9000000       2.88270e-17       8.44822e-18       2.03788e-17
 100.0000000       2.89093e-17       8.57159e-18       2.03377e-17
 100.1000000       2.89578e-17       8.73154e-18       2.02263e-17
 100.2000000       2.89635e-17       8.94925e-18       2.00143e-17
 100.3000000       2.90096e-17       9.22233e-18       1.97873e-17
 100.4000000       2.90105e-17       9.44980e-18       1.95607e-17
 100.5000000       2.86025e-17       9.24192e-18       1.93606e-17
 100.6000000       2.83788e-17       9.20957e-18       1.91692e-17
 100.7000000       2.85144e-17       9.53560e-18       1.89788e-17
 100.8000000       2.87441e-17       9.93938e-18       1.88047e-17
 100.9000000       2.90021e-17       1.03519e-17       1.86502e-17
 101.0000000       2.88689e-17       1.03579e-17       1.85110e-17
 101.1000000       2.86740e-17       1.02999e-17       1.83741e-17
 101.2000000       2.85418e-17       1.02990e-17       1.82428e-17
 101.3000000       2.88995e-17       1.07524e-17       1.81472e-17
 101.4000000       2.92611e-17       1.11974e-17       1.80637e-17
 101.5000000       2.90101e-17       1.10290e-17       1.79812e-17
 101.6000000       2.84364e-17       1.05561e-17       1.78803e-17
 101.7000000       2.81239e-17       1.03647e-17       1.77592e-17
 101.8000000       2.78883e-17       1.02727e-17       1.76155e-17
 101.9000000       2.77571e-17       1.03160e-17       1.74411e-17
 102.0000000       2.78796e-17       1.06109e-17       1.72688e-17
 102.1000000       2.76687e-17       1.05615e-17       1.71073e-17
 102.2000000       2.63514e-17       9.39391e-18       1.69575e-17
 102.3000000       2.66755e-17       9.85243e-18       1.68230e-17
 102.4000000       2.70051e-17       1.02985e-17       1.67066e-17
 102.5000000       2.69983e-17       1.04006e-17       1.65977e-17
 102.6000000       2.68806e-17       1.03840e-17       1.64966e-17
 102.7000000       2.67624e-17       1.03665e-17       1.63959e-17
 102.8000000       2.70390e-17       1.07492e-17       1.62898e-17
 102.9000000       2.69819e-17       1.07893e-17       1.61926e-17
 103.0000000       2.65561e-17       1.04529e-17       1.61032e-17
 103.1000000       2.61304e-17       1.01166e-17       1.60138e-17
 103.2000000       2.57046e-17       9.78023e-18       1.59244e-17
 103.3000000       2.53017e-17       9.45833e-18       1.58434e-17
 103.4000000       2.51829e-17       9.31610e-18       1.58668e-17
 103.5000000       2.53121e-17       9.35282e-18       1.59593e-17
 103.6000000       2.57243e-17       9.58008e-18       1.61442e-17
 103.7000000       2.59032e-17       9.55994e-18       1.63433e-17
 103.8000000       2.58932e-17       9.33184e-18       1.65614e-17
 103.9000000       2.58012e-17       9.07843e-18       1.67228e-17
 104.0000000       2.57468e-17       9.14152e-18       1.66053e-17
 104.1000000       2.56912e-17       9.24957e-18       1.64416e-17
 104.2000000       2.56905e-17       9.51232e-18       1.61782e-17
 104.3000000       2.62417e-17       1.03048e-17       1.59369e-17
 104.4000000       2.65638e-17       1.08563e-17       1.57075e-17
 104.5000000       2.70237e-17       1.15156e-17       1.55081e-17
 104.6000000       2.73814e-17       1.19061e-17       1.54753e-17
 104.7000000       2.76603e-17       1.21600e-17       1.55004e-17
 104.8000000       2.78126e-17       1.22871e-17       1.55254e-17
 104.9000000       2.77642e-17       1.22137e-17       1.55504e-17
 105.0000000       2.79994e-17       1.24937e-17       1.55057e-17
 105.1000000       2.82333e-17       1.28443e-17       1.53890e-17
 105.2000000       2.81597e-17       1.28968e-17       1.52630e-17
 105.3000000       2.81568e-17       1.30242e-17       1.51326e-17
 105.4000000       2.83013e-17       1.33080e-17       1.49933e-17
 105.5000000       2.84606e-17       1.36085e-17       1.48521e-17
 105.6000000       2.86560e-17       1.39506e-17       1.47053e-17
 105.7000000       2.88546e-17       1.42965e-17       1.45581e-17
 105.8000000       2.88593e-17       1.44169e-17       1.44424e-17
 105.9000000       2.85392e-17       1.41722e-17       1.43670e-17
 106.0000000       2.80683e-17       1.37753e-17       1.42931e-17
 106.1000000       2.76861e-17       1.34637e-17       1.42224e-17
 106.2000000       2.77311e-17       1.35745e-17       1.41566e-17
 106.3000000       2.77738e-17       1.36753e-17       1.40985e-17
 106.4000000       2.77419e-17       1.36917e-17       1.40501e-17
 106.5000000       2.77052e-17       1.37034e-17       1.40018e-17
 106.6000000       2.76669e-17       1.37134e-17       1.39535e-17
 106.7000000       2.76186e-17       1.37090e-17       1.39096e-17
 106.8000000       2.75042e-17       1.36085e-17       1.38957e-17
 106.9000000       2.73775e-17       1.34902e-17       1.38873e-17
 107.0000000       2.72517e-17       1.33729e-17       1.38788e-17
 107.1000000       2.72562e-17       1.33913e-17       1.38649e-17
 107.2000000       2.73524e-17       1.35052e-17       1.38472e-17
 107.3000000       2.71187e-17       1.33062e-17       1.38125e-17
 107.4000000       2.70499e-17       1.33004e-17       1.37494e-17
 107.5000000       2.73201e-17       1.36342e-17       1.36859e-17
 107.6000000       2.77437e-17       1.41213e-17       1.36223e-17
 107.7000000       2.78906e-17       1.43289e-17       1.35617e-17
 107.8000000       2.75458e-17       1.40118e-17       1.35340e-17
 107.9000000       2.69764e-17       1.33912e-17       1.35852e-17
 108.0000000       2.68043e-17       1.31337e-17       1.36707e-17
 108.1000000       2.66917e-17       1.29393e-17       1.37523e-17
 108.2000000       2.66399e-17       1.28652e-17       1.37746e-17
 108.3000000       2.66089e-17       1.28324e-17       1.37766e-17
 108.4000000       2.65780e-17       1.27995e-17       1.37785e-17
 108.5000000       2.65138e-17       1.27443e-17       1.37695e-17
 108.6000000       2.63921e-17       1.26511e-17       1.37410e-17
 108.7000000       2.63064e-17       1.26391e-17       1.36673e-17
 108.8000000       2.62452e-17       1.26813e-17       1.35639e-17
 108.9000000       2.61840e-17       1.27236e-17       1.34605e-17
 109.0000000       2.60773e-17       1.27068e-17       1.33705e-17
 109.1000000       2.57934e-17       1.24605e-17       1.33329e-17
 109.2000000       2.55132e-17       1.22019e-17       1.33113e-17
 109.3000000       2.52716e-17       1.19625e-17       1.33092e-17
