# O3 cross sections
# Alan Heays 2016-01-11
# References: berkowitz2008, ogawa1957, mason1996, ackerman1971, serdyuchenko2014b, mocellin2011
# photoabsorption   -- Photoabsorption cross section (cm2)
# photodissociation -- Photodissociation cross section (cm2)
# photoionisation   -- Photoionisation cross section (cm2)
# 
# wavelength   photoabsorption photodissociation   photoionisation
  52.7000000       3.05583e-17       0.00000e+00       3.05583e-17
  52.8000000       3.06592e-17       0.00000e+00       3.06592e-17
  52.9000000       3.07938e-17       0.00000e+00       3.07938e-17
  53.0000000       3.09285e-17       0.00000e+00       3.09285e-17
  53.1000000       3.10631e-17       0.00000e+00       3.10631e-17
  53.2000000       3.11977e-17       0.00000e+00       3.11977e-17
  53.3000000       3.13323e-17       0.00000e+00       3.13323e-17
  53.4000000       3.14669e-17       0.00000e+00       3.14669e-17
  53.5000000       3.16015e-17       0.00000e+00       3.16015e-17
  53.6000000       3.17362e-17       0.00000e+00       3.17362e-17
  53.7000000       3.18708e-17       0.00000e+00       3.18708e-17
  53.8000000       3.20054e-17       0.00000e+00       3.20054e-17
  53.9000000       3.21124e-17       0.00000e+00       3.21124e-17
  54.0000000       3.20537e-17       0.00000e+00       3.20537e-17
  54.1000000       3.19675e-17       0.00000e+00       3.19675e-17
  54.2000000       3.18812e-17       0.00000e+00       3.18812e-17
  54.3000000       3.17950e-17       0.00000e+00       3.17950e-17
  54.4000000       3.17087e-17       0.00000e+00       3.17087e-17
  54.5000000       3.16225e-17       0.00000e+00       3.16225e-17
  54.6000000       3.15362e-17       0.00000e+00       3.15362e-17
  54.7000000       3.14500e-17       0.00000e+00       3.14500e-17
  54.8000000       3.13637e-17       0.00000e+00       3.13637e-17
  54.9000000       3.12775e-17       0.00000e+00       3.12775e-17
  55.0000000       3.11912e-17       0.00000e+00       3.11912e-17
  55.1000000       3.11050e-17       0.00000e+00       3.11050e-17
  55.2000000       3.10187e-17       0.00000e+00       3.10187e-17
  55.3000000       3.09325e-17       0.00000e+00       3.09325e-17
  55.4000000       3.08462e-17       0.00000e+00       3.08462e-17
  55.5000000       3.07771e-17       0.00000e+00       3.07771e-17
  55.6000000       3.08104e-17       0.00000e+00       3.08104e-17
  55.7000000       3.08608e-17       0.00000e+00       3.08608e-17
  55.8000000       3.09112e-17       0.00000e+00       3.09112e-17
  55.9000000       3.09615e-17       0.00000e+00       3.09615e-17
  56.0000000       3.10119e-17       0.00000e+00       3.10119e-17
  56.1000000       3.10623e-17       0.00000e+00       3.10623e-17
  56.2000000       3.11127e-17       0.00000e+00       3.11127e-17
  56.3000000       3.11631e-17       0.00000e+00       3.11631e-17
  56.4000000       3.12135e-17       0.00000e+00       3.12135e-17
  56.5000000       3.12638e-17       0.00000e+00       3.12638e-17
  56.6000000       3.13142e-17       0.00000e+00       3.13142e-17
  56.7000000       3.13646e-17       0.00000e+00       3.13646e-17
  56.8000000       3.14150e-17       0.00000e+00       3.14150e-17
  56.9000000       3.14654e-17       0.00000e+00       3.14654e-17
  57.0000000       3.15158e-17       0.00000e+00       3.15158e-17
  57.1000000       3.15662e-17       0.00000e+00       3.15662e-17
  57.2000000       3.16165e-17       0.00000e+00       3.16165e-17
  57.3000000       3.16669e-17       0.00000e+00       3.16669e-17
  57.4000000       3.17173e-17       0.00000e+00       3.17173e-17
  57.5000000       3.17677e-17       0.00000e+00       3.17677e-17
  57.6000000       3.18181e-17       0.00000e+00       3.18181e-17
  57.7000000       3.18685e-17       0.00000e+00       3.18685e-17
  57.8000000       3.19188e-17       0.00000e+00       3.19188e-17
  57.9000000       3.19692e-17       0.00000e+00       3.19692e-17
  58.0000000       3.20196e-17       0.00000e+00       3.20196e-17
  58.1000000       3.20850e-17       0.00000e+00       3.20850e-17
  58.2000000       3.22400e-17       0.00000e+00       3.22400e-17
  58.3000000       3.24100e-17       0.00000e+00       3.24100e-17
  58.4000000       3.25800e-17       0.00000e+00       3.25800e-17
  58.5000000       3.27500e-17       0.00000e+00       3.27500e-17
  58.6000000       3.29200e-17       0.00000e+00       3.29200e-17
  58.7000000       3.30900e-17       0.00000e+00       3.30900e-17
  58.8000000       3.32600e-17       0.00000e+00       3.32600e-17
  58.9000000       3.34300e-17       0.00000e+00       3.34300e-17
  59.0000000       3.36000e-17       0.00000e+00       3.36000e-17
  59.1000000       3.37700e-17       0.00000e+00       3.37700e-17
  59.2000000       3.39400e-17       0.00000e+00       3.39400e-17
  59.3000000       3.41100e-17       0.00000e+00       3.41100e-17
  59.4000000       3.42800e-17       0.00000e+00       3.42800e-17
  59.5000000       3.44500e-17       0.00000e+00       3.44500e-17
  59.6000000       3.46200e-17       0.00000e+00       3.46200e-17
  59.7000000       3.47900e-17       0.00000e+00       3.47900e-17
  59.8000000       3.49600e-17       0.00000e+00       3.49600e-17
  59.9000000       3.51300e-17       0.00000e+00       3.51300e-17
  60.0000000       3.52770e-17       0.00000e+00       3.52770e-17
  60.1000000       3.52856e-17       0.00000e+00       3.52856e-17
  60.2000000       3.52713e-17       0.00000e+00       3.52713e-17
  60.3000000       3.52569e-17       0.00000e+00       3.52569e-17
  60.4000000       3.52425e-17       0.00000e+00       3.52425e-17
  60.5000000       3.52282e-17       0.00000e+00       3.52282e-17
  60.6000000       3.52138e-17       0.00000e+00       3.52138e-17
  60.7000000       3.51994e-17       0.00000e+00       3.51994e-17
  60.8000000       3.51850e-17       0.00000e+00       3.51850e-17
  60.9000000       3.51707e-17       0.00000e+00       3.51707e-17
  61.0000000       3.51577e-17       0.00000e+00       3.51577e-17
  61.1000000       3.51533e-17       0.00000e+00       3.51533e-17
  61.2000000       3.51503e-17       0.00000e+00       3.51503e-17
  61.3000000       3.51473e-17       0.00000e+00       3.51473e-17
  61.4000000       3.51443e-17       0.00000e+00       3.51443e-17
  61.5000000       3.51325e-17       0.00000e+00       3.51325e-17
  61.6000000       3.50678e-17       0.00000e+00       3.50678e-17
  61.7000000       3.49943e-17       0.00000e+00       3.49943e-17
  61.8000000       3.49208e-17       0.00000e+00       3.49208e-17
  61.9000000       3.48473e-17       0.00000e+00       3.48473e-17
  62.0000000       3.47861e-17       0.00000e+00       3.47861e-17
  62.1000000       3.47989e-17       0.00000e+00       3.47989e-17
  62.2000000       3.48240e-17       0.00000e+00       3.48240e-17
  62.3000000       3.48491e-17       0.00000e+00       3.48491e-17
  62.4000000       3.48742e-17       0.00000e+00       3.48742e-17
  62.5000000       3.48991e-17       0.00000e+00       3.48991e-17
  62.6000000       3.49228e-17       0.00000e+00       3.49228e-17
  62.7000000       3.49463e-17       0.00000e+00       3.49463e-17
  62.8000000       3.49697e-17       0.00000e+00       3.49697e-17
  62.9000000       3.49932e-17       0.00000e+00       3.49932e-17
  63.0000000       3.50124e-17       0.00000e+00       3.50124e-17
  63.1000000       3.50060e-17       0.00000e+00       3.50060e-17
  63.2000000       3.49954e-17       0.00000e+00       3.49954e-17
  63.3000000       3.49848e-17       0.00000e+00       3.49848e-17
  63.4000000       3.49742e-17       0.00000e+00       3.49742e-17
  63.5000000       3.49607e-17       0.00000e+00       3.49607e-17
  63.6000000       3.49299e-17       0.00000e+00       3.49299e-17
  63.7000000       3.48962e-17       0.00000e+00       3.48962e-17
  63.8000000       3.48625e-17       0.00000e+00       3.48625e-17
  63.9000000       3.48288e-17       0.00000e+00       3.48288e-17
  64.0000000       3.48072e-17       0.00000e+00       3.48072e-17
  64.1000000       3.48582e-17       0.00000e+00       3.48582e-17
  64.2000000       3.49213e-17       0.00000e+00       3.49213e-17
  64.3000000       3.49845e-17       0.00000e+00       3.49845e-17
  64.4000000       3.50476e-17       0.00000e+00       3.50476e-17
  64.5000000       3.50990e-17       0.00000e+00       3.50990e-17
  64.6000000       3.50800e-17       0.00000e+00       3.50800e-17
  64.7000000       3.50491e-17       0.00000e+00       3.50491e-17
  64.8000000       3.50183e-17       0.00000e+00       3.50183e-17
  64.9000000       3.49875e-17       0.00000e+00       3.49875e-17
  65.0000000       3.49694e-17       0.00000e+00       3.49694e-17
  65.1000000       3.50276e-17       0.00000e+00       3.50276e-17
  65.2000000       3.50984e-17       0.00000e+00       3.50984e-17
  65.3000000       3.51693e-17       0.00000e+00       3.51693e-17
  65.4000000       3.52402e-17       0.00000e+00       3.52402e-17
  65.5000000       3.53146e-17       0.00000e+00       3.53146e-17
  65.6000000       3.54101e-17       0.00000e+00       3.54101e-17
  65.7000000       3.55092e-17       0.00000e+00       3.55092e-17
  65.8000000       3.56082e-17       0.00000e+00       3.56082e-17
  65.9000000       3.57073e-17       0.00000e+00       3.57073e-17
  66.0000000       3.57849e-17       0.00000e+00       3.57849e-17
  66.1000000       3.57337e-17       0.00000e+00       3.57337e-17
  66.2000000       3.56611e-17       0.00000e+00       3.56611e-17
  66.3000000       3.55884e-17       0.00000e+00       3.55884e-17
  66.4000000       3.55157e-17       0.00000e+00       3.55157e-17
  66.5000000       3.54579e-17       0.00000e+00       3.54579e-17
  66.6000000       3.54887e-17       0.00000e+00       3.54887e-17
  66.7000000       3.55344e-17       0.00000e+00       3.55344e-17
  66.8000000       3.55800e-17       0.00000e+00       3.55800e-17
  66.9000000       3.56257e-17       0.00000e+00       3.56257e-17
  67.0000000       3.56573e-17       0.00000e+00       3.56573e-17
  67.1000000       3.56046e-17       0.00000e+00       3.56046e-17
  67.2000000       3.55378e-17       0.00000e+00       3.55378e-17
  67.3000000       3.54710e-17       0.00000e+00       3.54710e-17
  67.4000000       3.54042e-17       0.00000e+00       3.54042e-17
  67.5000000       3.53517e-17       0.00000e+00       3.53517e-17
  67.6000000       3.53851e-17       0.00000e+00       3.53851e-17
  67.7000000       3.54329e-17       0.00000e+00       3.54329e-17
  67.8000000       3.54806e-17       0.00000e+00       3.54806e-17
  67.9000000       3.55284e-17       0.00000e+00       3.55284e-17
  68.0000000       3.55634e-17       0.00000e+00       3.55634e-17
  68.1000000       3.55223e-17       0.00000e+00       3.55223e-17
  68.2000000       3.54684e-17       0.00000e+00       3.54684e-17
  68.3000000       3.54146e-17       0.00000e+00       3.54146e-17
  68.4000000       3.53607e-17       0.00000e+00       3.53607e-17
  68.5000000       3.53090e-17       0.00000e+00       3.53090e-17
  68.6000000       3.52699e-17       0.00000e+00       3.52699e-17
  68.7000000       3.52329e-17       0.00000e+00       3.52329e-17
  68.8000000       3.51959e-17       0.00000e+00       3.51959e-17
  68.9000000       3.51589e-17       0.00000e+00       3.51589e-17
  69.0000000       3.51123e-17       0.00000e+00       3.51123e-17
  69.1000000       3.50075e-17       0.00000e+00       3.50075e-17
  69.2000000       3.48931e-17       0.00000e+00       3.48931e-17
  69.3000000       3.47787e-17       0.00000e+00       3.47787e-17
  69.4000000       3.46643e-17       0.00000e+00       3.46643e-17
  69.5000000       3.45605e-17       0.00000e+00       3.45605e-17
  69.6000000       3.45200e-17       0.00000e+00       3.45200e-17
  69.7000000       3.44900e-17       0.00000e+00       3.44900e-17
  69.8000000       3.44601e-17       0.00000e+00       3.44601e-17
  69.9000000       3.44301e-17       0.00000e+00       3.44301e-17
  70.0000000       3.43943e-17       0.00000e+00       3.43943e-17
  70.1000000       3.43236e-17       0.00000e+00       3.43236e-17
  70.2000000       3.42470e-17       0.00000e+00       3.42470e-17
  70.3000000       3.41704e-17       0.00000e+00       3.41704e-17
  70.4000000       3.40939e-17       0.00000e+00       3.40939e-17
  70.5000000       3.40162e-17       0.00000e+00       3.40162e-17
  70.6000000       3.39321e-17       0.00000e+00       3.39321e-17
  70.7000000       3.38470e-17       0.00000e+00       3.38470e-17
  70.8000000       3.37618e-17       0.00000e+00       3.37618e-17
  70.9000000       3.36766e-17       0.00000e+00       3.36766e-17
  71.0000000       3.35866e-17       0.00000e+00       3.35866e-17
  71.1000000       3.34673e-17       0.00000e+00       3.34673e-17
  71.2000000       3.33432e-17       0.00000e+00       3.33432e-17
  71.3000000       3.32190e-17       0.00000e+00       3.32190e-17
  71.4000000       3.30949e-17       0.00000e+00       3.30949e-17
  71.5000000       3.29817e-17       0.00000e+00       3.29817e-17
  71.6000000       3.29342e-17       0.00000e+00       3.29342e-17
  71.7000000       3.28978e-17       0.00000e+00       3.28978e-17
  71.8000000       3.28613e-17       0.00000e+00       3.28613e-17
  71.9000000       3.28248e-17       0.00000e+00       3.28248e-17
  72.0000000       3.27886e-17       0.00000e+00       3.27886e-17
  72.1000000       3.27538e-17       0.00000e+00       3.27538e-17
  72.2000000       3.27192e-17       0.00000e+00       3.27192e-17
  72.3000000       3.26846e-17       0.00000e+00       3.26846e-17
  72.4000000       3.26500e-17       0.00000e+00       3.26500e-17
  72.5000000       3.26220e-17       0.00000e+00       3.26220e-17
  72.6000000       3.26337e-17       0.00000e+00       3.26337e-17
  72.7000000       3.26519e-17       0.00000e+00       3.26519e-17
  72.8000000       3.26702e-17       0.00000e+00       3.26702e-17
  72.9000000       3.26885e-17       0.00000e+00       3.26885e-17
  73.0000000       3.27104e-17       0.00000e+00       3.27104e-17
  73.1000000       3.27543e-17       0.00000e+00       3.27543e-17
  73.2000000       3.28018e-17       0.00000e+00       3.28018e-17
  73.3000000       3.28493e-17       0.00000e+00       3.28493e-17
  73.4000000       3.28969e-17       0.00000e+00       3.28969e-17
  73.5000000       3.29339e-17       0.00000e+00       3.29339e-17
  73.6000000       3.29077e-17       0.00000e+00       3.29077e-17
  73.7000000       3.28709e-17       0.00000e+00       3.28709e-17
  73.8000000       3.28342e-17       0.00000e+00       3.28342e-17
  73.9000000       3.27974e-17       0.00000e+00       3.27974e-17
  74.0000000       3.27564e-17       0.00000e+00       3.27564e-17
  74.1000000       3.26899e-17       0.00000e+00       3.26899e-17
  74.2000000       3.26191e-17       0.00000e+00       3.26191e-17
  74.3000000       3.25484e-17       0.00000e+00       3.25484e-17
  74.4000000       3.24776e-17       0.00000e+00       3.24776e-17
  74.5000000       3.24359e-17       0.00000e+00       3.24359e-17
  74.6000000       3.25684e-17       0.00000e+00       3.25684e-17
  74.7000000       3.27299e-17       0.00000e+00       3.27299e-17
  74.8000000       3.28913e-17       0.00000e+00       3.28913e-17
  74.9000000       3.30528e-17       0.00000e+00       3.30528e-17
  75.0000000       3.32053e-17       0.00000e+00       3.32053e-17
  75.1000000       3.33034e-17       0.00000e+00       3.33034e-17
  75.2000000       3.33925e-17       0.00000e+00       3.33925e-17
  75.3000000       3.34816e-17       0.00000e+00       3.34816e-17
  75.4000000       3.35706e-17       0.00000e+00       3.35706e-17
  75.5000000       3.36427e-17       0.00000e+00       3.36427e-17
  75.6000000       3.36123e-17       0.00000e+00       3.36123e-17
  75.7000000       3.35649e-17       0.00000e+00       3.35649e-17
  75.8000000       3.35174e-17       0.00000e+00       3.35174e-17
  75.9000000       3.34700e-17       0.00000e+00       3.34700e-17
  76.0000000       3.34215e-17       0.00000e+00       3.34215e-17
  76.1000000       3.33666e-17       0.00000e+00       3.33666e-17
  76.2000000       3.33107e-17       0.00000e+00       3.33107e-17
  76.3000000       3.32548e-17       0.00000e+00       3.32548e-17
  76.4000000       3.31988e-17       0.00000e+00       3.31988e-17
  76.5000000       3.31362e-17       0.00000e+00       3.31362e-17
  76.6000000       3.30331e-17       0.00000e+00       3.30331e-17
  76.7000000       3.29232e-17       0.00000e+00       3.29232e-17
  76.8000000       3.28134e-17       0.00000e+00       3.28134e-17
  76.9000000       3.27036e-17       0.00000e+00       3.27036e-17
  77.0000000       3.26027e-17       0.00000e+00       3.26027e-17
  77.1000000       3.25558e-17       0.00000e+00       3.25558e-17
  77.2000000       3.25179e-17       0.00000e+00       3.25179e-17
  77.3000000       3.24800e-17       0.00000e+00       3.24800e-17
  77.4000000       3.24421e-17       0.00000e+00       3.24421e-17
  77.5000000       3.23912e-17       0.00000e+00       3.23912e-17
  77.6000000       3.22616e-17       0.00000e+00       3.22616e-17
  77.7000000       3.21189e-17       0.00000e+00       3.21189e-17
  77.8000000       3.19763e-17       0.00000e+00       3.19763e-17
  77.9000000       3.18336e-17       0.00000e+00       3.18336e-17
  78.0000000       3.16942e-17       0.00000e+00       3.16942e-17
  78.1000000       3.15744e-17       0.00000e+00       3.15744e-17
  78.2000000       3.14579e-17       0.00000e+00       3.14579e-17
  78.3000000       3.13414e-17       0.00000e+00       3.13414e-17
  78.4000000       3.12249e-17       0.00000e+00       3.12249e-17
  78.5000000       3.11038e-17       0.00000e+00       3.11038e-17
  78.6000000       3.09550e-17       0.00000e+00       3.09550e-17
  78.7000000       3.08016e-17       0.00000e+00       3.08016e-17
  78.8000000       3.06483e-17       0.00000e+00       3.06483e-17
  78.9000000       3.04949e-17       0.00000e+00       3.04949e-17
  79.0000000       3.03269e-17       0.00000e+00       3.03269e-17
  79.1000000       3.00713e-17       0.00000e+00       3.00713e-17
  79.2000000       2.98011e-17       0.00000e+00       2.98011e-17
  79.3000000       2.95310e-17       0.00000e+00       2.95310e-17
  79.4000000       2.92608e-17       0.00000e+00       2.92608e-17
  79.5000000       2.90020e-17       0.00000e+00       2.90020e-17
  79.6000000       2.88113e-17       0.00000e+00       2.88113e-17
  79.7000000       2.86321e-17       0.00000e+00       2.86321e-17
  79.8000000       2.84528e-17       0.00000e+00       2.84528e-17
  79.9000000       2.82735e-17       0.00000e+00       2.82735e-17
  80.0000000       2.80863e-17       0.00000e+00       2.80863e-17
  80.1000000       2.78513e-17       0.00000e+00       2.78513e-17
  80.2000000       2.76084e-17       0.00000e+00       2.76084e-17
  80.3000000       2.73655e-17       0.00000e+00       2.73655e-17
  80.4000000       2.71226e-17       0.00000e+00       2.71226e-17
  80.5000000       2.68774e-17       0.00000e+00       2.68774e-17
  80.6000000       2.66188e-17       0.00000e+00       2.66188e-17
  80.7000000       2.63580e-17       0.00000e+00       2.63580e-17
  80.8000000       2.60972e-17       0.00000e+00       2.60972e-17
  80.9000000       2.58363e-17       0.00000e+00       2.58363e-17
  81.0000000       2.55764e-17       0.00000e+00       2.55764e-17
  81.1000000       2.53215e-17       0.00000e+00       2.53215e-17
  81.2000000       2.50675e-17       0.00000e+00       2.50675e-17
  81.3000000       2.48134e-17       0.00000e+00       2.48134e-17
  81.4000000       2.45594e-17       0.00000e+00       2.45594e-17
  81.5000000       2.43552e-17       0.00000e+00       2.43552e-17
  81.6000000       2.44500e-17       0.00000e+00       2.44500e-17
  81.7000000       2.45946e-17       0.00000e+00       2.45946e-17
  81.8000000       2.47392e-17       0.00000e+00       2.47392e-17
