# Cross sections for PH+
# Converted from earlier Leiden database cross sections by Alan Heays 2016-02-24
# Photodissociation source: PH+ P.D. CF. NH+ SHIFTED
# Lines represented with gaussian of width 1.0 nm FWHM
# wavelength: (nm)
# photoabsorption:    cross section (cm2)
# photodissociation:  cross section (cm2)
# 
# wavelength   photoabsorption photodissociation
  91.3000000       1.16159e-19       1.16159e-19
  91.4000000       1.25854e-19       1.25854e-19
  91.5000000       1.38780e-19       1.38780e-19
  91.6000000       1.51707e-19       1.51707e-19
  91.7000000       1.64634e-19       1.64634e-19
  91.8000000       1.77561e-19       1.77561e-19
  91.9000000       1.90488e-19       1.90488e-19
  92.0000000       2.03415e-19       2.03415e-19
  92.1000000       2.16341e-19       2.16341e-19
  92.2000000       2.29268e-19       2.29268e-19
  92.3000000       2.42195e-19       2.42195e-19
  92.4000000       2.55122e-19       2.55122e-19
  92.5000000       2.68049e-19       2.68049e-19
  92.6000000       2.80976e-19       2.80976e-19
  92.7000000       2.93902e-19       2.93902e-19
  92.8000000       3.06829e-19       3.06829e-19
  92.9000000       3.19756e-19       3.19756e-19
  93.0000000       3.32683e-19       3.32683e-19
  93.1000000       3.45610e-19       3.45610e-19
  93.2000000       3.58537e-19       3.58537e-19
  93.3000000       3.71463e-19       3.71463e-19
  93.4000000       3.84390e-19       3.84390e-19
  93.5000000       3.97317e-19       3.97317e-19
  93.6000000       4.10244e-19       4.10244e-19
  93.7000000       4.23171e-19       4.23171e-19
  93.8000000       4.36098e-19       4.36098e-19
  93.9000000       4.49024e-19       4.49024e-19
  94.0000000       4.61951e-19       4.61951e-19
  94.1000000       4.74878e-19       4.74878e-19
  94.2000000       4.87805e-19       4.87805e-19
  94.3000000       5.00732e-19       5.00732e-19
  94.4000000       5.13659e-19       5.13659e-19
  94.5000000       5.26585e-19       5.26585e-19
  94.6000000       5.39512e-19       5.39512e-19
  94.7000000       5.52439e-19       5.52439e-19
  94.8000000       5.65366e-19       5.65366e-19
  94.9000000       5.78293e-19       5.78293e-19
  95.0000000       5.91220e-19       5.91220e-19
  95.1000000       6.04146e-19       6.04146e-19
  95.2000000       6.17073e-19       6.17073e-19
  95.3000000       6.30435e-19       6.30435e-19
  95.4000000       6.46406e-19       6.46406e-19
  95.5000000       6.62812e-19       6.62812e-19
  95.6000000       6.79219e-19       6.79219e-19
  95.7000000       6.95625e-19       6.95625e-19
  95.8000000       7.12031e-19       7.12031e-19
  95.9000000       7.28437e-19       7.28437e-19
  96.0000000       7.44844e-19       7.44844e-19
  96.1000000       7.61250e-19       7.61250e-19
  96.2000000       7.77656e-19       7.77656e-19
  96.3000000       7.94062e-19       7.94062e-19
  96.4000000       8.10469e-19       8.10469e-19
  96.5000000       8.26875e-19       8.26875e-19
  96.6000000       8.43281e-19       8.43281e-19
  96.7000000       8.59687e-19       8.59687e-19
  96.8000000       8.76094e-19       8.76094e-19
  96.9000000       8.92500e-19       8.92500e-19
  97.0000000       9.08906e-19       9.08906e-19
  97.1000000       9.25312e-19       9.25312e-19
  97.2000000       9.41719e-19       9.41719e-19
  97.3000000       9.58125e-19       9.58125e-19
  97.4000000       9.74531e-19       9.74531e-19
  97.5000000       9.90937e-19       9.90937e-19
  97.6000000       1.00734e-18       1.00734e-18
  97.7000000       1.02375e-18       1.02375e-18
  97.8000000       1.04016e-18       1.04016e-18
  97.9000000       1.05656e-18       1.05656e-18
  98.0000000       1.07297e-18       1.07297e-18
  98.1000000       1.08937e-18       1.08937e-18
  98.2000000       1.10578e-18       1.10578e-18
  98.3000000       1.12219e-18       1.12219e-18
  98.4000000       1.13859e-18       1.13859e-18
  98.5000000       1.15500e-18       1.15500e-18
  98.6000000       1.17141e-18       1.17141e-18
  98.7000000       1.18781e-18       1.18781e-18
  98.8000000       1.20422e-18       1.20422e-18
  98.9000000       1.22062e-18       1.22062e-18
  99.0000000       1.23703e-18       1.23703e-18
  99.1000000       1.25344e-18       1.25344e-18
  99.2000000       1.26984e-18       1.26984e-18
  99.3000000       1.28625e-18       1.28625e-18
  99.4000000       1.30266e-18       1.30266e-18
  99.5000000       1.31906e-18       1.31906e-18
  99.6000000       1.33547e-18       1.33547e-18
  99.7000000       1.35187e-18       1.35187e-18
  99.8000000       1.36828e-18       1.36828e-18
  99.9000000       1.38469e-18       1.38469e-18
 100.0000000       1.40109e-18       1.40109e-18
 100.1000000       1.41750e-18       1.41750e-18
 100.2000000       1.43391e-18       1.43391e-18
 100.3000000       1.45031e-18       1.45031e-18
 100.4000000       1.46672e-18       1.46672e-18
 100.5000000       1.48312e-18       1.48312e-18
 100.6000000       1.49953e-18       1.49953e-18
 100.7000000       1.51594e-18       1.51594e-18
 100.8000000       1.53234e-18       1.53234e-18
 100.9000000       1.54875e-18       1.54875e-18
 101.0000000       1.56516e-18       1.56516e-18
 101.1000000       1.58156e-18       1.58156e-18
 101.2000000       1.59797e-18       1.59797e-18
 101.3000000       1.61437e-18       1.61437e-18
 101.4000000       1.63078e-18       1.63078e-18
 101.5000000       1.64719e-18       1.64719e-18
 101.6000000       1.66359e-18       1.66359e-18
 101.7000000       1.67895e-18       1.67895e-18
 101.8000000       1.68800e-18       1.68800e-18
 101.9000000       1.69600e-18       1.69600e-18
 102.0000000       1.70400e-18       1.70400e-18
 102.1000000       1.71200e-18       1.71200e-18
 102.2000000       1.72000e-18       1.72000e-18
 102.3000000       1.72800e-18       1.72800e-18
 102.4000000       1.73600e-18       1.73600e-18
 102.5000000       1.74400e-18       1.74400e-18
 102.6000000       1.75200e-18       1.75200e-18
 102.7000000       1.76000e-18       1.76000e-18
 102.8000000       1.76800e-18       1.76800e-18
 102.9000000       1.77600e-18       1.77600e-18
 103.0000000       1.78400e-18       1.78400e-18
 103.1000000       1.79200e-18       1.79200e-18
 103.2000000       1.80000e-18       1.80000e-18
 103.3000000       1.80800e-18       1.80800e-18
 103.4000000       1.81600e-18       1.81600e-18
 103.5000000       1.82400e-18       1.82400e-18
 103.6000000       1.83200e-18       1.83200e-18
 103.7000000       1.84000e-18       1.84000e-18
 103.8000000       1.84800e-18       1.84800e-18
 103.9000000       1.85600e-18       1.85600e-18
 104.0000000       1.86400e-18       1.86400e-18
 104.1000000       1.87200e-18       1.87200e-18
 104.2000000       1.88000e-18       1.88000e-18
 104.3000000       1.88800e-18       1.88800e-18
 104.4000000       1.89600e-18       1.89600e-18
 104.5000000       1.90400e-18       1.90400e-18
 104.6000000       1.91200e-18       1.91200e-18
 104.7000000       1.92000e-18       1.92000e-18
 104.8000000       1.92800e-18       1.92800e-18
 104.9000000       1.93600e-18       1.93600e-18
 105.0000000       1.94400e-18       1.94400e-18
 105.1000000       1.95200e-18       1.95200e-18
 105.2000000       1.96000e-18       1.96000e-18
 105.3000000       1.96800e-18       1.96800e-18
 105.4000000       1.97600e-18       1.97600e-18
 105.5000000       1.98400e-18       1.98400e-18
 105.6000000       1.99200e-18       1.99200e-18
 105.7000000       1.99900e-18       1.99900e-18
 105.8000000       2.00000e-18       2.00000e-18
 105.9000000       2.00000e-18       2.00000e-18
 106.0000000       2.00000e-18       2.00000e-18
 106.1000000       2.00000e-18       2.00000e-18
 106.2000000       2.00000e-18       2.00000e-18
 106.3000000       2.00000e-18       2.00000e-18
 106.4000000       2.00000e-18       2.00000e-18
 106.5000000       2.00000e-18       2.00000e-18
 106.6000000       2.00000e-18       2.00000e-18
 106.7000000       2.00000e-18       2.00000e-18
 106.8000000       2.00000e-18       2.00000e-18
 106.9000000       2.00000e-18       2.00000e-18
 107.0000000       2.00000e-18       2.00000e-18
 107.1000000       2.00000e-18       2.00000e-18
 107.2000000       2.00000e-18       2.00000e-18
 107.3000000       2.00000e-18       2.00000e-18
 107.4000000       2.00000e-18       2.00000e-18
 107.5000000       2.00000e-18       2.00000e-18
 107.6000000       2.00000e-18       2.00000e-18
 107.7000000       2.00000e-18       2.00000e-18
 107.8000000       2.00000e-18       2.00000e-18
 107.9000000       2.00000e-18       2.00000e-18
 108.0000000       2.00000e-18       2.00000e-18
 108.1000000       2.00000e-18       2.00000e-18
 108.2000000       2.00000e-18       2.00000e-18
 108.3000000       2.00000e-18       2.00000e-18
 108.4000000       2.00000e-18       2.00000e-18
 108.5000000       2.00000e-18       2.00000e-18
 108.6000000       2.00000e-18       2.00000e-18
 108.7000000       2.00000e-18       2.00000e-18
 108.8000000       2.00000e-18       2.00000e-18
 108.9000000       2.00000e-18       2.00000e-18
 109.0000000       2.00000e-18       2.00000e-18
 109.1000000       2.00000e-18       2.00000e-18
 109.2000000       2.00000e-18       2.00000e-18
 109.3000000       2.00000e-18       2.00000e-18
 109.4000000       2.00000e-18       2.00000e-18
 109.5000000       2.00000e-18       2.00000e-18
 109.6000000       2.00000e-18       2.00000e-18
 109.7000000       2.00000e-18       2.00000e-18
 109.8000000       2.00000e-18       2.00000e-18
 109.9000000       2.00000e-18       2.00000e-18
 110.0000000       2.00000e-18       2.00000e-18
 110.1000000       2.00000e-18       2.00000e-18
 110.2000000       2.00000e-18       2.00000e-18
 110.3000000       2.00000e-18       2.00000e-18
 110.4000000       2.00000e-18       2.00000e-18
 110.5000000       2.00000e-18       2.00000e-18
 110.6000000       2.00000e-18       2.00000e-18
 110.7000000       2.00000e-18       2.00000e-18
 110.8000000       2.00000e-18       2.00000e-18
 110.9000000       2.00000e-18       2.00000e-18
 111.0000000       2.00000e-18       2.00000e-18
 111.1000000       2.00000e-18       2.00000e-18
 111.2000000       1.99716e-18       1.99716e-18
 111.3000000       1.97727e-18       1.97727e-18
 111.4000000       1.95455e-18       1.95455e-18
 111.5000000       1.93182e-18       1.93182e-18
 111.6000000       1.90909e-18       1.90909e-18
 111.7000000       1.88636e-18       1.88636e-18
 111.8000000       1.86364e-18       1.86364e-18
 111.9000000       1.84091e-18       1.84091e-18
 112.0000000       1.81818e-18       1.81818e-18
 112.1000000       1.80014e-18       1.80014e-18
 112.2000000       1.79568e-18       1.79568e-18
 112.3000000       1.79209e-18       1.79209e-18
 112.4000000       1.78849e-18       1.78849e-18
 112.5000000       1.78489e-18       1.78489e-18
 112.6000000       1.78129e-18       1.78129e-18
 112.7000000       1.77770e-18       1.77770e-18
 112.8000000       1.77410e-18       1.77410e-18
 112.9000000       1.77050e-18       1.77050e-18
 113.0000000       1.76691e-18       1.76691e-18
 113.1000000       1.76331e-18       1.76331e-18
 113.2000000       1.75971e-18       1.75971e-18
 113.3000000       1.75612e-18       1.75612e-18
 113.4000000       1.75252e-18       1.75252e-18
 113.5000000       1.74783e-18       1.74783e-18
 113.6000000       1.74091e-18       1.74091e-18
 113.7000000       1.73392e-18       1.73392e-18
 113.8000000       1.72692e-18       1.72692e-18
 113.9000000       1.71993e-18       1.71993e-18
 114.0000000       1.71294e-18       1.71294e-18
 114.1000000       1.70594e-18       1.70594e-18
 114.2000000       1.69895e-18       1.69895e-18
 114.3000000       1.69196e-18       1.69196e-18
 114.4000000       1.68497e-18       1.68497e-18
 114.5000000       1.67797e-18       1.67797e-18
 114.6000000       1.67098e-18       1.67098e-18
 114.7000000       1.66399e-18       1.66399e-18
 114.8000000       1.65699e-18       1.65699e-18
 114.9000000       1.64986e-18       1.64986e-18
 115.0000000       1.64189e-18       1.64189e-18
 115.1000000       1.63378e-18       1.63378e-18
 115.2000000       1.62568e-18       1.62568e-18
 115.3000000       1.61757e-18       1.61757e-18
 115.4000000       1.60946e-18       1.60946e-18
 115.5000000       1.60135e-18       1.60135e-18
 115.6000000       1.59324e-18       1.59324e-18
 115.7000000       1.58514e-18       1.58514e-18
 115.8000000       1.57703e-18       1.57703e-18
 115.9000000       1.56892e-18       1.56892e-18
 116.0000000       1.56081e-18       1.56081e-18
 116.1000000       1.55270e-18       1.55270e-18
 116.2000000       1.54459e-18       1.54459e-18
 116.3000000       1.53649e-18       1.53649e-18
 116.4000000       1.52811e-18       1.52811e-18
 116.5000000       1.51895e-18       1.51895e-18
 116.6000000       1.50974e-18       1.50974e-18
 116.7000000       1.50053e-18       1.50053e-18
 116.8000000       1.49132e-18       1.49132e-18
 116.9000000       1.48211e-18       1.48211e-18
 117.0000000       1.47289e-18       1.47289e-18
 117.1000000       1.46368e-18       1.46368e-18
 117.2000000       1.45447e-18       1.45447e-18
 117.3000000       1.44526e-18       1.44526e-18
 117.4000000       1.43605e-18       1.43605e-18
 117.5000000       1.42684e-18       1.42684e-18
 117.6000000       1.41763e-18       1.41763e-18
 117.7000000       1.40842e-18       1.40842e-18
 117.8000000       1.39921e-18       1.39921e-18
 117.9000000       1.38996e-18       1.38996e-18
 118.0000000       1.38045e-18       1.38045e-18
 118.1000000       1.37089e-18       1.37089e-18
 118.2000000       1.36134e-18       1.36134e-18
 118.3000000       1.35178e-18       1.35178e-18
 118.4000000       1.34223e-18       1.34223e-18
 118.5000000       1.33268e-18       1.33268e-18
 118.6000000       1.32312e-18       1.32312e-18
 118.7000000       1.31357e-18       1.31357e-18
 118.8000000       1.30401e-18       1.30401e-18
 118.9000000       1.29446e-18       1.29446e-18
 119.0000000       1.28490e-18       1.28490e-18
 119.1000000       1.27535e-18       1.27535e-18
 119.2000000       1.26580e-18       1.26580e-18
 119.3000000       1.25624e-18       1.25624e-18
 119.4000000       1.24669e-18       1.24669e-18
 119.5000000       1.23744e-18       1.23744e-18
 119.6000000       1.22883e-18       1.22883e-18
 119.7000000       1.22025e-18       1.22025e-18
 119.8000000       1.21166e-18       1.21166e-18
 119.9000000       1.20307e-18       1.20307e-18
 120.0000000       1.19448e-18       1.19448e-18
 120.1000000       1.18589e-18       1.18589e-18
 120.2000000       1.17730e-18       1.17730e-18
 120.3000000       1.16871e-18       1.16871e-18
 120.4000000       1.16012e-18       1.16012e-18
 120.5000000       1.15153e-18       1.15153e-18
 120.6000000       1.14294e-18       1.14294e-18
 120.7000000       1.13436e-18       1.13436e-18
 120.8000000       1.12577e-18       1.12577e-18
 120.9000000       1.11718e-18       1.11718e-18
 121.0000000       1.10859e-18       1.10859e-18
 121.1000000       1.09997e-18       1.09997e-18
 121.2000000       1.09118e-18       1.09118e-18
 121.3000000       1.08235e-18       1.08235e-18
 121.4000000       1.07353e-18       1.07353e-18
 121.5000000       1.06471e-18       1.06471e-18
 121.6000000       1.05588e-18       1.05588e-18
 121.7000000       1.04706e-18       1.04706e-18
 121.8000000       1.03824e-18       1.03824e-18
 121.9000000       1.02941e-18       1.02941e-18
 122.0000000       1.02059e-18       1.02059e-18
 122.1000000       1.01176e-18       1.01176e-18
 122.2000000       1.00294e-18       1.00294e-18
 122.3000000       9.94118e-19       9.94118e-19
 122.4000000       9.85294e-19       9.85294e-19
 122.5000000       9.76471e-19       9.76471e-19
 122.6000000       9.67647e-19       9.67647e-19
 122.7000000       9.58824e-19       9.58824e-19
 122.8000000       9.50051e-19       9.50051e-19
 122.9000000       9.41588e-19       9.41588e-19
 123.0000000       9.33176e-19       9.33176e-19
 123.1000000       9.24765e-19       9.24765e-19
 123.2000000       9.16353e-19       9.16353e-19
 123.3000000       9.07941e-19       9.07941e-19
 123.4000000       8.99529e-19       8.99529e-19
 123.5000000       8.91118e-19       8.91118e-19
 123.6000000       8.82706e-19       8.82706e-19
 123.7000000       8.74294e-19       8.74294e-19
 123.8000000       8.65882e-19       8.65882e-19
 123.9000000       8.57471e-19       8.57471e-19
 124.0000000       8.49059e-19       8.49059e-19
 124.1000000       8.40647e-19       8.40647e-19
 124.2000000       8.32235e-19       8.32235e-19
 124.3000000       8.23824e-19       8.23824e-19
 124.4000000       8.15412e-19       8.15412e-19
 124.5000000       8.07079e-19       8.07079e-19
 124.6000000       7.99222e-19       7.99222e-19
 124.7000000       7.91444e-19       7.91444e-19
 124.8000000       7.83667e-19       7.83667e-19
 124.9000000       7.75889e-19       7.75889e-19
 125.0000000       7.68111e-19       7.68111e-19
 125.1000000       7.60333e-19       7.60333e-19
 125.2000000       7.52556e-19       7.52556e-19
 125.3000000       7.44778e-19       7.44778e-19
 125.4000000       7.37000e-19       7.37000e-19
 125.5000000       7.29222e-19       7.29222e-19
 125.6000000       7.21444e-19       7.21444e-19
 125.7000000       7.13667e-19       7.13667e-19
 125.8000000       7.05889e-19       7.05889e-19
 125.9000000       6.98111e-19       6.98111e-19
 126.0000000       6.90333e-19       6.90333e-19
 126.1000000       6.82556e-19       6.82556e-19
 126.2000000       6.74778e-19       6.74778e-19
 126.3000000       6.67021e-19       6.67021e-19
 126.4000000       6.59389e-19       6.59389e-19
 126.5000000       6.51778e-19       6.51778e-19
 126.6000000       6.44167e-19       6.44167e-19
 126.7000000       6.36556e-19       6.36556e-19
 126.8000000       6.28944e-19       6.28944e-19
 126.9000000       6.21333e-19       6.21333e-19
 127.0000000       6.13722e-19       6.13722e-19
 127.1000000       6.06111e-19       6.06111e-19
 127.2000000       5.98500e-19       5.98500e-19
 127.3000000       5.90889e-19       5.90889e-19
 127.4000000       5.83278e-19       5.83278e-19
 127.5000000       5.75667e-19       5.75667e-19
 127.6000000       5.68056e-19       5.68056e-19
 127.7000000       5.60444e-19       5.60444e-19
 127.8000000       5.52833e-19       5.52833e-19
 127.9000000       5.45222e-19       5.45222e-19
 128.0000000       5.37611e-19       5.37611e-19
 128.1000000       5.30164e-19       5.30164e-19
 128.2000000       5.23700e-19       5.23700e-19
 128.3000000       5.17400e-19       5.17400e-19
 128.4000000       5.11100e-19       5.11100e-19
 128.5000000       5.04800e-19       5.04800e-19
 128.6000000       4.98500e-19       4.98500e-19
 128.7000000       4.92200e-19       4.92200e-19
 128.8000000       4.85900e-19       4.85900e-19
 128.9000000       4.79600e-19       4.79600e-19
 129.0000000       4.73300e-19       4.73300e-19
 129.1000000       4.67000e-19       4.67000e-19
 129.2000000       4.60700e-19       4.60700e-19
 129.3000000       4.54400e-19       4.54400e-19
 129.4000000       4.48100e-19       4.48100e-19
 129.5000000       4.41800e-19       4.41800e-19
 129.6000000       4.35500e-19       4.35500e-19
 129.7000000       4.29200e-19       4.29200e-19
 129.8000000       4.22900e-19       4.22900e-19
 129.9000000       4.16600e-19       4.16600e-19
 130.0000000       4.10300e-19       4.10300e-19
 130.1000000       4.04138e-19       4.04138e-19
 130.2000000       3.98800e-19       3.98800e-19
 130.3000000       3.93600e-19       3.93600e-19
 130.4000000       3.88400e-19       3.88400e-19
 130.5000000       3.83200e-19       3.83200e-19
 130.6000000       3.78000e-19       3.78000e-19
 130.7000000       3.72800e-19       3.72800e-19
 130.8000000       3.67600e-19       3.67600e-19
 130.9000000       3.62400e-19       3.62400e-19
 131.0000000       3.57200e-19       3.57200e-19
 131.1000000       3.52000e-19       3.52000e-19
 131.2000000       3.46800e-19       3.46800e-19
