# CH+ cross sections
# Alan Heays 2016-11-22
# References: mcmillan2016
# photoabsorption   -- Photoabsorption cross section (cm2)
# photodissociation -- Photodissociation cross section (cm2)
# photoionisation   -- Photoionisation cross section (cm2)
# 
# wavelength   photoabsorption photodissociation   photoionisation
  70.1000000       1.82514e-24       1.82514e-24       0.00000e+00
  70.2000000       2.09746e-24       2.09746e-24       0.00000e+00
  70.3000000       2.46056e-24       2.46056e-24       0.00000e+00
  70.4000000       2.82366e-24       2.82366e-24       0.00000e+00
  70.5000000       3.18676e-24       3.18676e-24       0.00000e+00
  70.6000000       3.54986e-24       3.54986e-24       0.00000e+00
  70.7000000       3.91296e-24       3.91296e-24       0.00000e+00
  70.8000000       4.27606e-24       4.27606e-24       0.00000e+00
  70.9000000       4.63916e-24       4.63916e-24       0.00000e+00
  71.0000000       4.95531e-24       4.95531e-24       0.00000e+00
  71.1000000       4.98980e-24       4.98980e-24       0.00000e+00
  71.2000000       4.97734e-24       4.97734e-24       0.00000e+00
  71.3000000       4.96488e-24       4.96488e-24       0.00000e+00
  71.4000000       4.95242e-24       4.95242e-24       0.00000e+00
  71.5000000       4.93997e-24       4.93997e-24       0.00000e+00
  71.6000000       4.92751e-24       4.92751e-24       0.00000e+00
  71.7000000       4.91505e-24       4.91505e-24       0.00000e+00
  71.8000000       4.90259e-24       4.90259e-24       0.00000e+00
  71.9000000       4.89013e-24       4.89013e-24       0.00000e+00
  72.0000000       4.87854e-24       4.87854e-24       0.00000e+00
  72.1000000       4.87212e-24       4.87212e-24       0.00000e+00
  72.2000000       4.86656e-24       4.86656e-24       0.00000e+00
  72.3000000       4.86101e-24       4.86101e-24       0.00000e+00
  72.4000000       4.85545e-24       4.85545e-24       0.00000e+00
  72.5000000       4.84990e-24       4.84990e-24       0.00000e+00
  72.6000000       4.84434e-24       4.84434e-24       0.00000e+00
  72.7000000       4.83878e-24       4.83878e-24       0.00000e+00
  72.8000000       4.83323e-24       4.83323e-24       0.00000e+00
  72.9000000       4.82767e-24       4.82767e-24       0.00000e+00
  73.0000000       4.93961e-24       4.93961e-24       0.00000e+00
  73.1000000       5.75654e-24       5.75654e-24       0.00000e+00
  73.2000000       6.69096e-24       6.69096e-24       0.00000e+00
  73.3000000       7.62539e-24       7.62539e-24       0.00000e+00
  73.4000000       8.55981e-24       8.55981e-24       0.00000e+00
  73.5000000       9.49423e-24       9.49423e-24       0.00000e+00
  73.6000000       1.04287e-23       1.04287e-23       0.00000e+00
  73.7000000       1.13631e-23       1.13631e-23       0.00000e+00
  73.8000000       1.22975e-23       1.22975e-23       0.00000e+00
  73.9000000       1.32319e-23       1.32319e-23       0.00000e+00
  74.0000000       1.47765e-23       1.47765e-23       0.00000e+00
  74.1000000       1.99818e-23       1.99818e-23       0.00000e+00
  74.2000000       2.57973e-23       2.57973e-23       0.00000e+00
  74.3000000       3.16128e-23       3.16128e-23       0.00000e+00
  74.4000000       3.74283e-23       3.74283e-23       0.00000e+00
  74.5000000       4.32438e-23       4.32438e-23       0.00000e+00
  74.6000000       4.90593e-23       4.90593e-23       0.00000e+00
  74.7000000       5.48748e-23       5.48748e-23       0.00000e+00
  74.8000000       6.06902e-23       6.06902e-23       0.00000e+00
  74.9000000       6.65057e-23       6.65057e-23       0.00000e+00
  75.0000000       7.49852e-23       7.49852e-23       0.00000e+00
  75.1000000       9.94483e-23       9.94483e-23       0.00000e+00
  75.2000000       1.26575e-22       1.26575e-22       0.00000e+00
  75.3000000       1.53703e-22       1.53703e-22       0.00000e+00
  75.4000000       1.80830e-22       1.80830e-22       0.00000e+00
  75.5000000       2.07957e-22       2.07957e-22       0.00000e+00
  75.6000000       2.35084e-22       2.35084e-22       0.00000e+00
  75.7000000       2.62211e-22       2.62211e-22       0.00000e+00
  75.8000000       2.89338e-22       2.89338e-22       0.00000e+00
  75.9000000       3.16465e-22       3.16465e-22       0.00000e+00
  76.0000000       3.50406e-22       3.50406e-22       0.00000e+00
  76.1000000       4.25225e-22       4.25225e-22       0.00000e+00
  76.2000000       5.06858e-22       5.06858e-22       0.00000e+00
  76.3000000       5.88491e-22       5.88491e-22       0.00000e+00
  76.4000000       6.70124e-22       6.70124e-22       0.00000e+00
  76.5000000       7.51756e-22       7.51756e-22       0.00000e+00
  76.6000000       8.33389e-22       8.33389e-22       0.00000e+00
  76.7000000       9.15022e-22       9.15022e-22       0.00000e+00
  76.8000000       9.96655e-22       9.96655e-22       0.00000e+00
  76.9000000       1.07829e-21       1.07829e-21       0.00000e+00
  77.0000000       1.19269e-21       1.19269e-21       0.00000e+00
  77.1000000       1.50368e-21       1.50368e-21       0.00000e+00
  77.2000000       1.84744e-21       1.84744e-21       0.00000e+00
  77.3000000       2.19119e-21       2.19119e-21       0.00000e+00
  77.4000000       2.53495e-21       2.53495e-21       0.00000e+00
  77.5000000       2.87871e-21       2.87871e-21       0.00000e+00
  77.6000000       3.22247e-21       3.22247e-21       0.00000e+00
  77.7000000       3.56622e-21       3.56622e-21       0.00000e+00
  77.8000000       3.90998e-21       3.90998e-21       0.00000e+00
  77.9000000       4.25374e-21       4.25374e-21       0.00000e+00
  78.0000000       4.63667e-21       4.63667e-21       0.00000e+00
  78.1000000       5.25463e-21       5.25463e-21       0.00000e+00
  78.2000000       5.91177e-21       5.91177e-21       0.00000e+00
  78.3000000       6.56890e-21       6.56890e-21       0.00000e+00
  78.4000000       7.22604e-21       7.22604e-21       0.00000e+00
  78.5000000       7.88317e-21       7.88317e-21       0.00000e+00
  78.6000000       8.54031e-21       8.54031e-21       0.00000e+00
  78.7000000       9.19745e-21       9.19745e-21       0.00000e+00
  78.8000000       9.85458e-21       9.85458e-21       0.00000e+00
  78.9000000       1.05117e-20       1.05117e-20       0.00000e+00
  79.0000000       1.12240e-20       1.12240e-20       0.00000e+00
  79.1000000       1.22668e-20       1.22668e-20       0.00000e+00
  79.2000000       1.33647e-20       1.33647e-20       0.00000e+00
  79.3000000       1.44627e-20       1.44627e-20       0.00000e+00
  79.4000000       1.55606e-20       1.55606e-20       0.00000e+00
  79.5000000       1.66586e-20       1.66586e-20       0.00000e+00
  79.6000000       1.77565e-20       1.77565e-20       0.00000e+00
  79.7000000       1.88544e-20       1.88544e-20       0.00000e+00
  79.8000000       1.99524e-20       1.99524e-20       0.00000e+00
  79.9000000       2.10503e-20       2.10503e-20       0.00000e+00
  80.0000000       2.25957e-20       2.25957e-20       0.00000e+00
  80.1000000       2.68258e-20       2.68258e-20       0.00000e+00
  80.2000000       3.15033e-20       3.15033e-20       0.00000e+00
  80.3000000       3.61809e-20       3.61809e-20       0.00000e+00
  80.4000000       4.08584e-20       4.08584e-20       0.00000e+00
  80.5000000       4.55360e-20       4.55360e-20       0.00000e+00
  80.6000000       5.02135e-20       5.02135e-20       0.00000e+00
  80.7000000       5.48911e-20       5.48911e-20       0.00000e+00
  80.8000000       5.95686e-20       5.95686e-20       0.00000e+00
  80.9000000       6.42462e-20       6.42462e-20       0.00000e+00
  81.0000000       6.89239e-20       6.89239e-20       0.00000e+00
  81.1000000       7.36028e-20       7.36028e-20       0.00000e+00
  81.2000000       7.82819e-20       7.82819e-20       0.00000e+00
  81.3000000       8.29610e-20       8.29610e-20       0.00000e+00
  81.4000000       8.76400e-20       8.76400e-20       0.00000e+00
  81.5000000       9.23191e-20       9.23191e-20       0.00000e+00
  81.6000000       9.69982e-20       9.69982e-20       0.00000e+00
  81.7000000       1.01677e-19       1.01677e-19       0.00000e+00
  81.8000000       1.06356e-19       1.06356e-19       0.00000e+00
  81.9000000       1.11035e-19       1.11035e-19       0.00000e+00
  82.0000000       1.17695e-19       1.17695e-19       0.00000e+00
  82.1000000       1.36238e-19       1.36238e-19       0.00000e+00
  82.2000000       1.56761e-19       1.56761e-19       0.00000e+00
  82.3000000       1.77285e-19       1.77285e-19       0.00000e+00
  82.4000000       1.97808e-19       1.97808e-19       0.00000e+00
  82.5000000       2.18332e-19       2.18332e-19       0.00000e+00
  82.6000000       2.38855e-19       2.38855e-19       0.00000e+00
  82.7000000       2.59379e-19       2.59379e-19       0.00000e+00
  82.8000000       2.79902e-19       2.79902e-19       0.00000e+00
  82.9000000       3.00426e-19       3.00426e-19       0.00000e+00
  83.0000000       3.21556e-19       3.21556e-19       0.00000e+00
  83.1000000       3.46329e-19       3.46329e-19       0.00000e+00
  83.2000000       3.71709e-19       3.71709e-19       0.00000e+00
  83.3000000       3.97089e-19       3.97089e-19       0.00000e+00
  83.4000000       4.22469e-19       4.22469e-19       0.00000e+00
  83.5000000       4.47849e-19       4.47849e-19       0.00000e+00
  83.6000000       4.73229e-19       4.73229e-19       0.00000e+00
  83.7000000       4.98609e-19       4.98609e-19       0.00000e+00
  83.8000000       5.23989e-19       5.23989e-19       0.00000e+00
  83.9000000       5.49369e-19       5.49369e-19       0.00000e+00
  84.0000000       5.77217e-19       5.77217e-19       0.00000e+00
  84.1000000       6.19870e-19       6.19870e-19       0.00000e+00
  84.2000000       6.64991e-19       6.64991e-19       0.00000e+00
  84.3000000       7.10113e-19       7.10113e-19       0.00000e+00
  84.4000000       7.55234e-19       7.55234e-19       0.00000e+00
  84.5000000       8.00355e-19       8.00355e-19       0.00000e+00
  84.6000000       8.45476e-19       8.45476e-19       0.00000e+00
  84.7000000       8.90597e-19       8.90597e-19       0.00000e+00
  84.8000000       9.35718e-19       9.35718e-19       0.00000e+00
  84.9000000       9.80839e-19       9.80839e-19       0.00000e+00
  85.0000000       1.03365e-18       1.03365e-18       0.00000e+00
  85.1000000       1.13263e-18       1.13263e-18       0.00000e+00
  85.2000000       1.23929e-18       1.23929e-18       0.00000e+00
  85.3000000       1.34596e-18       1.34596e-18       0.00000e+00
  85.4000000       1.45262e-18       1.45262e-18       0.00000e+00
  85.5000000       1.55929e-18       1.55929e-18       0.00000e+00
  85.6000000       1.66595e-18       1.66595e-18       0.00000e+00
  85.7000000       1.77262e-18       1.77262e-18       0.00000e+00
  85.8000000       1.87928e-18       1.87928e-18       0.00000e+00
  85.9000000       1.98595e-18       1.98595e-18       0.00000e+00
  86.0000000       2.09263e-18       2.09263e-18       0.00000e+00
  86.1000000       2.19943e-18       2.19943e-18       0.00000e+00
  86.2000000       2.30626e-18       2.30626e-18       0.00000e+00
  86.3000000       2.41308e-18       2.41308e-18       0.00000e+00
  86.4000000       2.51990e-18       2.51990e-18       0.00000e+00
  86.5000000       2.62672e-18       2.62672e-18       0.00000e+00
  86.6000000       2.73354e-18       2.73354e-18       0.00000e+00
  86.7000000       2.84036e-18       2.84036e-18       0.00000e+00
  86.8000000       2.94719e-18       2.94719e-18       0.00000e+00
  86.9000000       3.05401e-18       3.05401e-18       0.00000e+00
  87.0000000       3.17360e-18       3.17360e-18       0.00000e+00
  87.1000000       3.36981e-18       3.36981e-18       0.00000e+00
  87.2000000       3.57879e-18       3.57879e-18       0.00000e+00
  87.3000000       3.78776e-18       3.78776e-18       0.00000e+00
  87.4000000       3.99674e-18       3.99674e-18       0.00000e+00
  87.5000000       4.20572e-18       4.20572e-18       0.00000e+00
  87.6000000       4.41470e-18       4.41470e-18       0.00000e+00
  87.7000000       4.62367e-18       4.62367e-18       0.00000e+00
  87.8000000       4.83265e-18       4.83265e-18       0.00000e+00
  87.9000000       5.04163e-18       5.04163e-18       0.00000e+00
  88.0000000       5.25558e-18       5.25558e-18       0.00000e+00
  88.1000000       5.49938e-18       5.49938e-18       0.00000e+00
  88.2000000       5.74816e-18       5.74816e-18       0.00000e+00
  88.3000000       5.99693e-18       5.99693e-18       0.00000e+00
  88.4000000       6.24571e-18       6.24571e-18       0.00000e+00
  88.5000000       6.49448e-18       6.49448e-18       0.00000e+00
  88.6000000       6.74325e-18       6.74325e-18       0.00000e+00
  88.7000000       6.99203e-18       6.99203e-18       0.00000e+00
  88.8000000       7.24080e-18       7.24080e-18       0.00000e+00
  88.9000000       7.48958e-18       7.48958e-18       0.00000e+00
  89.0000000       7.74321e-18       7.74321e-18       0.00000e+00
  89.1000000       8.02598e-18       8.02598e-18       0.00000e+00
  89.2000000       8.31361e-18       8.31361e-18       0.00000e+00
  89.3000000       8.60124e-18       8.60124e-18       0.00000e+00
  89.4000000       8.88887e-18       8.88887e-18       0.00000e+00
  89.5000000       9.17650e-18       9.17650e-18       0.00000e+00
  89.6000000       9.46413e-18       9.46413e-18       0.00000e+00
  89.7000000       9.75176e-18       9.75176e-18       0.00000e+00
  89.8000000       1.00394e-17       1.00394e-17       0.00000e+00
  89.9000000       1.03270e-17       1.03270e-17       0.00000e+00
  90.0000000       1.06335e-17       1.06335e-17       0.00000e+00
  90.1000000       1.10530e-17       1.10530e-17       0.00000e+00
  90.2000000       1.14914e-17       1.14914e-17       0.00000e+00
  90.3000000       1.19297e-17       1.19297e-17       0.00000e+00
  90.4000000       1.23681e-17       1.23681e-17       0.00000e+00
  90.5000000       1.28064e-17       1.28064e-17       0.00000e+00
  90.6000000       1.32448e-17       1.32448e-17       0.00000e+00
  90.7000000       1.36831e-17       1.36831e-17       0.00000e+00
  90.8000000       1.41215e-17       1.41215e-17       0.00000e+00
  90.9000000       1.45598e-17       1.45598e-17       0.00000e+00
  91.0000000       1.49995e-17       1.49995e-17       0.00000e+00
  91.1000000       1.54473e-17       1.54473e-17       0.00000e+00
  91.2000000       1.58963e-17       1.58963e-17       0.00000e+00
  91.3000000       1.63454e-17       1.63454e-17       0.00000e+00
  91.4000000       1.67945e-17       1.67945e-17       0.00000e+00
  91.5000000       1.72435e-17       1.72435e-17       0.00000e+00
  91.6000000       1.76926e-17       1.76926e-17       0.00000e+00
  91.7000000       1.81417e-17       1.81417e-17       0.00000e+00
  91.8000000       1.85907e-17       1.85907e-17       0.00000e+00
  91.9000000       1.90398e-17       1.90398e-17       0.00000e+00
  92.0000000       1.95144e-17       1.95144e-17       0.00000e+00
  92.1000000       2.01424e-17       2.01424e-17       0.00000e+00
  92.2000000       2.07959e-17       2.07959e-17       0.00000e+00
  92.3000000       2.14494e-17       2.14494e-17       0.00000e+00
  92.4000000       2.21029e-17       2.21029e-17       0.00000e+00
  92.5000000       2.27564e-17       2.27564e-17       0.00000e+00
  92.6000000       2.34099e-17       2.34099e-17       0.00000e+00
  92.7000000       2.40634e-17       2.40634e-17       0.00000e+00
  92.8000000       2.47169e-17       2.47169e-17       0.00000e+00
  92.9000000       2.53704e-17       2.53704e-17       0.00000e+00
  93.0000000       2.60239e-17       2.60239e-17       0.00000e+00
  93.1000000       2.66774e-17       2.66774e-17       0.00000e+00
  93.2000000       2.73309e-17       2.73309e-17       0.00000e+00
  93.3000000       2.79845e-17       2.79845e-17       0.00000e+00
  93.4000000       2.86380e-17       2.86380e-17       0.00000e+00
  93.5000000       2.92915e-17       2.92915e-17       0.00000e+00
  93.6000000       2.99450e-17       2.99450e-17       0.00000e+00
  93.7000000       3.05985e-17       3.05985e-17       0.00000e+00
  93.8000000       3.12521e-17       3.12521e-17       0.00000e+00
  93.9000000       3.19056e-17       3.19056e-17       0.00000e+00
  94.0000000       3.25478e-17       3.25478e-17       0.00000e+00
  94.1000000       3.31221e-17       3.31221e-17       0.00000e+00
  94.2000000       3.36852e-17       3.36852e-17       0.00000e+00
  94.3000000       3.42483e-17       3.42483e-17       0.00000e+00
  94.4000000       3.48113e-17       3.48113e-17       0.00000e+00
  94.5000000       3.53744e-17       3.53744e-17       0.00000e+00
  94.6000000       3.59374e-17       3.59374e-17       0.00000e+00
  94.7000000       3.65005e-17       3.65005e-17       0.00000e+00
  94.8000000       3.70636e-17       3.70636e-17       0.00000e+00
  94.9000000       3.76266e-17       3.76266e-17       0.00000e+00
  95.0000000       3.81661e-17       3.81661e-17       0.00000e+00
  95.1000000       3.85645e-17       3.85645e-17       0.00000e+00
  95.2000000       3.89394e-17       3.89394e-17       0.00000e+00
  95.3000000       3.93143e-17       3.93143e-17       0.00000e+00
  95.4000000       3.96891e-17       3.96891e-17       0.00000e+00
  95.5000000       4.00640e-17       4.00640e-17       0.00000e+00
  95.6000000       4.04389e-17       4.04389e-17       0.00000e+00
  95.7000000       4.08137e-17       4.08137e-17       0.00000e+00
  95.8000000       4.11886e-17       4.11886e-17       0.00000e+00
  95.9000000       4.15634e-17       4.15634e-17       0.00000e+00
  96.0000000       4.19260e-17       4.19260e-17       0.00000e+00
  96.1000000       4.22146e-17       4.22146e-17       0.00000e+00
  96.2000000       4.24910e-17       4.24910e-17       0.00000e+00
  96.3000000       4.27673e-17       4.27673e-17       0.00000e+00
  96.4000000       4.30437e-17       4.30437e-17       0.00000e+00
  96.5000000       4.33200e-17       4.33200e-17       0.00000e+00
  96.6000000       4.35964e-17       4.35964e-17       0.00000e+00
  96.7000000       4.38727e-17       4.38727e-17       0.00000e+00
  96.8000000       4.41490e-17       4.41490e-17       0.00000e+00
  96.9000000       4.44254e-17       4.44254e-17       0.00000e+00
  97.0000000       4.46790e-17       4.46790e-17       0.00000e+00
  97.1000000       4.47964e-17       4.47964e-17       0.00000e+00
  97.2000000       4.48910e-17       4.48910e-17       0.00000e+00
  97.3000000       4.49857e-17       4.49857e-17       0.00000e+00
  97.4000000       4.50803e-17       4.50803e-17       0.00000e+00
  97.5000000       4.51749e-17       4.51749e-17       0.00000e+00
  97.6000000       4.52696e-17       4.52696e-17       0.00000e+00
  97.7000000       4.53642e-17       4.53642e-17       0.00000e+00
  97.8000000       4.54589e-17       4.54589e-17       0.00000e+00
  97.9000000       4.55535e-17       4.55535e-17       0.00000e+00
  98.0000000       4.56482e-17       4.56482e-17       0.00000e+00
  98.1000000       4.57428e-17       4.57428e-17       0.00000e+00
  98.2000000       4.58375e-17       4.58375e-17       0.00000e+00
  98.3000000       4.59322e-17       4.59322e-17       0.00000e+00
  98.4000000       4.60268e-17       4.60268e-17       0.00000e+00
  98.5000000       4.61215e-17       4.61215e-17       0.00000e+00
  98.6000000       4.62161e-17       4.62161e-17       0.00000e+00
  98.7000000       4.63108e-17       4.63108e-17       0.00000e+00
  98.8000000       4.64055e-17       4.64055e-17       0.00000e+00
  98.9000000       4.65001e-17       4.65001e-17       0.00000e+00
  99.0000000       4.65519e-17       4.65519e-17       0.00000e+00
  99.1000000       4.63462e-17       4.63462e-17       0.00000e+00
  99.2000000       4.60977e-17       4.60977e-17       0.00000e+00
  99.3000000       4.58491e-17       4.58491e-17       0.00000e+00
