# Cross sections for SiH+
# Converted from earlier Leiden database cross sections by Alan Heays 2016-02-24
# Photodissociation source: SIH+ P.D. A 1 PI CF. KIRBY & SINGH '83 + REST CH+ SHIFTED
# Lines represented with gaussian of width 1.0 nm FWHM
# wavelength: (nm)
# photoabsorption:    cross section (cm2)
# photodissociation:  cross section (cm2)
# 
# wavelength   photoabsorption photodissociation
 100.1000000       2.31250e-19       2.31250e-19
 100.2000000       3.70000e-19       3.70000e-19
 100.3000000       5.55000e-19       5.55000e-19
 100.4000000       7.40000e-19       7.40000e-19
 100.5000000       9.25000e-19       9.25000e-19
 100.6000000       1.11000e-18       1.11000e-18
 100.7000000       1.29500e-18       1.29500e-18
 100.8000000       1.48000e-18       1.48000e-18
 100.9000000       1.66500e-18       1.66500e-18
 101.0000000       1.85000e-18       1.85000e-18
 101.1000000       2.03500e-18       2.03500e-18
 101.2000000       2.22000e-18       2.22000e-18
 101.3000000       2.40500e-18       2.40500e-18
 101.4000000       2.59000e-18       2.59000e-18
 101.5000000       2.77500e-18       2.77500e-18
 101.6000000       2.96000e-18       2.96000e-18
 101.7000000       3.14500e-18       3.14500e-18
 101.8000000       3.33000e-18       3.33000e-18
 101.9000000       3.51500e-18       3.51500e-18
 102.0000000       3.70000e-18       3.70000e-18
 102.1000000       3.88500e-18       3.88500e-18
 102.2000000       4.07000e-18       4.07000e-18
 102.3000000       4.25500e-18       4.25500e-18
 102.4000000       4.44000e-18       4.44000e-18
 102.5000000       4.62500e-18       4.62500e-18
 102.6000000       4.81000e-18       4.81000e-18
 102.7000000       4.99500e-18       4.99500e-18
 102.8000000       5.18000e-18       5.18000e-18
 102.9000000       5.36500e-18       5.36500e-18
 103.0000000       5.55000e-18       5.55000e-18
 103.1000000       5.73500e-18       5.73500e-18
 103.2000000       5.92000e-18       5.92000e-18
 103.3000000       6.10500e-18       6.10500e-18
 103.4000000       6.29000e-18       6.29000e-18
 103.5000000       6.47500e-18       6.47500e-18
 103.6000000       6.66000e-18       6.66000e-18
 103.7000000       6.84500e-18       6.84500e-18
 103.8000000       7.03000e-18       7.03000e-18
 103.9000000       7.21500e-18       7.21500e-18
 104.0000000       7.40000e-18       7.40000e-18
 104.1000000       7.58500e-18       7.58500e-18
 104.2000000       7.77000e-18       7.77000e-18
 104.3000000       7.95500e-18       7.95500e-18
 104.4000000       8.14000e-18       8.14000e-18
 104.5000000       8.32500e-18       8.32500e-18
 104.6000000       8.51000e-18       8.51000e-18
 104.7000000       8.69500e-18       8.69500e-18
 104.8000000       8.88000e-18       8.88000e-18
 104.9000000       9.06500e-18       9.06500e-18
 105.0000000       9.25000e-18       9.25000e-18
 105.1000000       9.43500e-18       9.43500e-18
 105.2000000       9.62000e-18       9.62000e-18
 105.3000000       9.80500e-18       9.80500e-18
 105.4000000       9.99000e-18       9.99000e-18
 105.5000000       1.01750e-17       1.01750e-17
 105.6000000       1.03600e-17       1.03600e-17
 105.7000000       1.05450e-17       1.05450e-17
 105.8000000       1.07300e-17       1.07300e-17
 105.9000000       1.09150e-17       1.09150e-17
 106.0000000       1.11000e-17       1.11000e-17
 106.1000000       1.12850e-17       1.12850e-17
 106.2000000       1.14700e-17       1.14700e-17
 106.3000000       1.16550e-17       1.16550e-17
 106.4000000       1.18400e-17       1.18400e-17
 106.5000000       1.20250e-17       1.20250e-17
 106.6000000       1.22100e-17       1.22100e-17
 106.7000000       1.23950e-17       1.23950e-17
 106.8000000       1.25800e-17       1.25800e-17
 106.9000000       1.27650e-17       1.27650e-17
 107.0000000       1.29500e-17       1.29500e-17
 107.1000000       1.31350e-17       1.31350e-17
 107.2000000       1.33200e-17       1.33200e-17
 107.3000000       1.35050e-17       1.35050e-17
 107.4000000       1.36900e-17       1.36900e-17
 107.5000000       1.38750e-17       1.38750e-17
 107.6000000       1.40600e-17       1.40600e-17
 107.7000000       1.42450e-17       1.42450e-17
 107.8000000       1.44300e-17       1.44300e-17
 107.9000000       1.46150e-17       1.46150e-17
 108.0000000       1.48000e-17       1.48000e-17
 108.1000000       1.49850e-17       1.49850e-17
 108.2000000       1.51700e-17       1.51700e-17
 108.3000000       1.53550e-17       1.53550e-17
 108.4000000       1.55400e-17       1.55400e-17
 108.5000000       1.57250e-17       1.57250e-17
 108.6000000       1.59100e-17       1.59100e-17
 108.7000000       1.60950e-17       1.60950e-17
 108.8000000       1.62800e-17       1.62800e-17
 108.9000000       1.64650e-17       1.64650e-17
 109.0000000       1.66500e-17       1.66500e-17
 109.1000000       1.68350e-17       1.68350e-17
 109.2000000       1.70200e-17       1.70200e-17
 109.3000000       1.72050e-17       1.72050e-17
 109.4000000       1.73900e-17       1.73900e-17
 109.5000000       1.75750e-17       1.75750e-17
 109.6000000       1.77600e-17       1.77600e-17
 109.7000000       1.79450e-17       1.79450e-17
 109.8000000       1.81300e-17       1.81300e-17
 109.9000000       1.83150e-17       1.83150e-17
 110.0000000       1.84925e-17       1.84925e-17
 110.1000000       1.86250e-17       1.86250e-17
 110.2000000       1.87500e-17       1.87500e-17
 110.3000000       1.88750e-17       1.88750e-17
 110.4000000       1.90000e-17       1.90000e-17
 110.5000000       1.91250e-17       1.91250e-17
 110.6000000       1.92500e-17       1.92500e-17
 110.7000000       1.93750e-17       1.93750e-17
 110.8000000       1.95000e-17       1.95000e-17
 110.9000000       1.96250e-17       1.96250e-17
 111.0000000       1.97500e-17       1.97500e-17
 111.1000000       1.98750e-17       1.98750e-17
 111.2000000       2.00000e-17       2.00000e-17
 111.3000000       2.01250e-17       2.01250e-17
 111.4000000       2.02500e-17       2.02500e-17
 111.5000000       2.03750e-17       2.03750e-17
 111.6000000       2.05000e-17       2.05000e-17
 111.7000000       2.06250e-17       2.06250e-17
 111.8000000       2.07500e-17       2.07500e-17
 111.9000000       2.08750e-17       2.08750e-17
 112.0000000       2.10144e-17       2.10144e-17
 112.1000000       2.12400e-17       2.12400e-17
 112.2000000       2.14800e-17       2.14800e-17
 112.3000000       2.17200e-17       2.17200e-17
 112.4000000       2.19600e-17       2.19600e-17
 112.5000000       2.22000e-17       2.22000e-17
 112.6000000       2.24400e-17       2.24400e-17
 112.7000000       2.26800e-17       2.26800e-17
 112.8000000       2.29200e-17       2.29200e-17
 112.9000000       2.31600e-17       2.31600e-17
 113.0000000       2.34000e-17       2.34000e-17
 113.1000000       2.36400e-17       2.36400e-17
 113.2000000       2.38800e-17       2.38800e-17
 113.3000000       2.41200e-17       2.41200e-17
 113.4000000       2.43600e-17       2.43600e-17
 113.5000000       2.46000e-17       2.46000e-17
 113.6000000       2.48400e-17       2.48400e-17
 113.7000000       2.50800e-17       2.50800e-17
 113.8000000       2.53200e-17       2.53200e-17
 113.9000000       2.55600e-17       2.55600e-17
 114.0000000       2.57994e-17       2.57994e-17
 114.1000000       2.60350e-17       2.60350e-17
 114.2000000       2.62700e-17       2.62700e-17
 114.3000000       2.65050e-17       2.65050e-17
 114.4000000       2.67400e-17       2.67400e-17
 114.5000000       2.69750e-17       2.69750e-17
 114.6000000       2.72100e-17       2.72100e-17
 114.7000000       2.74450e-17       2.74450e-17
 114.8000000       2.76800e-17       2.76800e-17
 114.9000000       2.79150e-17       2.79150e-17
 115.0000000       2.81500e-17       2.81500e-17
 115.1000000       2.83850e-17       2.83850e-17
 115.2000000       2.86200e-17       2.86200e-17
 115.3000000       2.88550e-17       2.88550e-17
 115.4000000       2.90900e-17       2.90900e-17
 115.5000000       2.93250e-17       2.93250e-17
 115.6000000       2.95600e-17       2.95600e-17
 115.7000000       2.97950e-17       2.97950e-17
 115.8000000       3.00300e-17       3.00300e-17
 115.9000000       3.02650e-17       3.02650e-17
 116.0000000       3.04981e-17       3.04981e-17
 116.1000000       3.07200e-17       3.07200e-17
 116.2000000       3.09400e-17       3.09400e-17
 116.3000000       3.11600e-17       3.11600e-17
 116.4000000       3.13800e-17       3.13800e-17
 116.5000000       3.16000e-17       3.16000e-17
 116.6000000       3.18200e-17       3.18200e-17
 116.7000000       3.20400e-17       3.20400e-17
 116.8000000       3.22600e-17       3.22600e-17
 116.9000000       3.24800e-17       3.24800e-17
 117.0000000       3.27000e-17       3.27000e-17
 117.1000000       3.29200e-17       3.29200e-17
 117.2000000       3.31400e-17       3.31400e-17
 117.3000000       3.33600e-17       3.33600e-17
 117.4000000       3.35800e-17       3.35800e-17
 117.5000000       3.38000e-17       3.38000e-17
 117.6000000       3.40200e-17       3.40200e-17
 117.7000000       3.42400e-17       3.42400e-17
 117.8000000       3.44600e-17       3.44600e-17
 117.9000000       3.46800e-17       3.46800e-17
 118.0000000       3.48388e-17       3.48388e-17
 118.1000000       3.46300e-17       3.46300e-17
 118.2000000       3.43600e-17       3.43600e-17
 118.3000000       3.40900e-17       3.40900e-17
 118.4000000       3.38200e-17       3.38200e-17
 118.5000000       3.35500e-17       3.35500e-17
 118.6000000       3.32800e-17       3.32800e-17
 118.7000000       3.30100e-17       3.30100e-17
 118.8000000       3.27400e-17       3.27400e-17
 118.9000000       3.24700e-17       3.24700e-17
 119.0000000       3.22000e-17       3.22000e-17
 119.1000000       3.19300e-17       3.19300e-17
 119.2000000       3.16600e-17       3.16600e-17
 119.3000000       3.13900e-17       3.13900e-17
 119.4000000       3.11200e-17       3.11200e-17
 119.5000000       3.08500e-17       3.08500e-17
 119.6000000       3.05800e-17       3.05800e-17
 119.7000000       3.03100e-17       3.03100e-17
 119.8000000       3.00400e-17       3.00400e-17
 119.9000000       2.97700e-17       2.97700e-17
 120.0000000       2.94756e-17       2.94756e-17
 120.1000000       2.90350e-17       2.90350e-17
 120.2000000       2.85700e-17       2.85700e-17
 120.3000000       2.81050e-17       2.81050e-17
 120.4000000       2.76400e-17       2.76400e-17
 120.5000000       2.71750e-17       2.71750e-17
 120.6000000       2.67100e-17       2.67100e-17
 120.7000000       2.62450e-17       2.62450e-17
 120.8000000       2.57800e-17       2.57800e-17
 120.9000000       2.53150e-17       2.53150e-17
 121.0000000       2.48500e-17       2.48500e-17
 121.1000000       2.43850e-17       2.43850e-17
 121.2000000       2.39200e-17       2.39200e-17
 121.3000000       2.34550e-17       2.34550e-17
 121.4000000       2.29900e-17       2.29900e-17
 121.5000000       2.25250e-17       2.25250e-17
 121.6000000       2.20600e-17       2.20600e-17
 121.7000000       2.15950e-17       2.15950e-17
 121.8000000       2.11300e-17       2.11300e-17
 121.9000000       2.06650e-17       2.06650e-17
 122.0000000       2.01975e-17       2.01975e-17
 122.1000000       1.97150e-17       1.97150e-17
 122.2000000       1.92300e-17       1.92300e-17
 122.3000000       1.87450e-17       1.87450e-17
 122.4000000       1.82600e-17       1.82600e-17
 122.5000000       1.77750e-17       1.77750e-17
 122.6000000       1.72900e-17       1.72900e-17
 122.7000000       1.68050e-17       1.68050e-17
 122.8000000       1.63200e-17       1.63200e-17
 122.9000000       1.58350e-17       1.58350e-17
 123.0000000       1.53500e-17       1.53500e-17
 123.1000000       1.48650e-17       1.48650e-17
 123.2000000       1.43800e-17       1.43800e-17
 123.3000000       1.38950e-17       1.38950e-17
 123.4000000       1.34100e-17       1.34100e-17
 123.5000000       1.29250e-17       1.29250e-17
 123.6000000       1.24400e-17       1.24400e-17
 123.7000000       1.19550e-17       1.19550e-17
 123.8000000       1.14700e-17       1.14700e-17
 123.9000000       1.09850e-17       1.09850e-17
 124.0000000       1.05388e-17       1.05388e-17
 124.1000000       1.03250e-17       1.03250e-17
 124.2000000       1.01500e-17       1.01500e-17
 124.3000000       9.97500e-18       9.97500e-18
 124.4000000       9.80000e-18       9.80000e-18
 124.5000000       9.62500e-18       9.62500e-18
 124.6000000       9.45000e-18       9.45000e-18
 124.7000000       9.27500e-18       9.27500e-18
 124.8000000       9.10000e-18       9.10000e-18
 124.9000000       8.92500e-18       8.92500e-18
 125.0000000       8.75000e-18       8.75000e-18
 125.1000000       8.57500e-18       8.57500e-18
 125.2000000       8.40000e-18       8.40000e-18
 125.3000000       8.22500e-18       8.22500e-18
 125.4000000       8.05000e-18       8.05000e-18
 125.5000000       7.87500e-18       7.87500e-18
 125.6000000       7.70000e-18       7.70000e-18
 125.7000000       7.52500e-18       7.52500e-18
 125.8000000       7.35000e-18       7.35000e-18
 125.9000000       7.17500e-18       7.17500e-18
 126.0000000       7.00313e-18       7.00313e-18
 126.1000000       6.85000e-18       6.85000e-18
 126.2000000       6.70000e-18       6.70000e-18
 126.3000000       6.55000e-18       6.55000e-18
 126.4000000       6.40000e-18       6.40000e-18
 126.5000000       6.25000e-18       6.25000e-18
 126.6000000       6.10000e-18       6.10000e-18
 126.7000000       5.95000e-18       5.95000e-18
 126.8000000       5.80000e-18       5.80000e-18
 126.9000000       5.65000e-18       5.65000e-18
 127.0000000       5.50000e-18       5.50000e-18
 127.1000000       5.35000e-18       5.35000e-18
 127.2000000       5.20000e-18       5.20000e-18
 127.3000000       5.05000e-18       5.05000e-18
 127.4000000       4.90000e-18       4.90000e-18
 127.5000000       4.75000e-18       4.75000e-18
 127.6000000       4.60000e-18       4.60000e-18
 127.7000000       4.45000e-18       4.45000e-18
 127.8000000       4.30000e-18       4.30000e-18
 127.9000000       4.15000e-18       4.15000e-18
 128.0000000       3.99688e-18       3.99688e-18
 128.1000000       3.82500e-18       3.82500e-18
 128.2000000       3.65000e-18       3.65000e-18
 128.3000000       3.47500e-18       3.47500e-18
 128.4000000       3.30000e-18       3.30000e-18
 128.5000000       3.12500e-18       3.12500e-18
 128.6000000       2.95000e-18       2.95000e-18
 128.7000000       2.77500e-18       2.77500e-18
 128.8000000       2.60000e-18       2.60000e-18
 128.9000000       2.42500e-18       2.42500e-18
 129.0000000       2.25000e-18       2.25000e-18
 129.1000000       2.07500e-18       2.07500e-18
 129.2000000       1.90000e-18       1.90000e-18
 129.3000000       1.72500e-18       1.72500e-18
 129.4000000       1.55000e-18       1.55000e-18
 129.5000000       1.37500e-18       1.37500e-18
 129.6000000       1.20000e-18       1.20000e-18
 129.7000000       1.02500e-18       1.02500e-18
 129.8000000       8.50000e-19       8.50000e-19
 129.9000000       6.75000e-19       6.75000e-19
 130.0000000       5.11458e-19       5.11458e-19
 130.1000000       4.16667e-19       4.16667e-19
 130.2000000       3.33333e-19       3.33333e-19
 130.3000000       2.50000e-19       2.50000e-19
 130.4000000       1.66667e-19       1.66667e-19
 130.5000000       8.33333e-20       8.33333e-20
 130.6000000       1.04167e-20       1.04167e-20
 130.7000000       0.00000e+00       0.00000e+00
 130.8000000       0.00000e+00       0.00000e+00
 130.9000000       0.00000e+00       0.00000e+00
 131.0000000       0.00000e+00       0.00000e+00
 131.1000000       0.00000e+00       0.00000e+00
 131.2000000       0.00000e+00       0.00000e+00
 131.3000000       0.00000e+00       0.00000e+00
 131.4000000       0.00000e+00       0.00000e+00
 131.5000000       0.00000e+00       0.00000e+00
 131.6000000       0.00000e+00       0.00000e+00
 131.7000000       0.00000e+00       0.00000e+00
 131.8000000       0.00000e+00       0.00000e+00
 131.9000000       0.00000e+00       0.00000e+00
 132.0000000       0.00000e+00       0.00000e+00
 132.1000000       0.00000e+00       0.00000e+00
 132.2000000       0.00000e+00       0.00000e+00
 132.3000000       0.00000e+00       0.00000e+00
 132.4000000       0.00000e+00       0.00000e+00
 132.5000000       0.00000e+00       0.00000e+00
 132.6000000       0.00000e+00       0.00000e+00
 132.7000000       0.00000e+00       0.00000e+00
 132.8000000       0.00000e+00       0.00000e+00
 132.9000000       0.00000e+00       0.00000e+00
 133.0000000       0.00000e+00       0.00000e+00
 133.1000000       0.00000e+00       0.00000e+00
 133.2000000       0.00000e+00       0.00000e+00
 133.3000000       0.00000e+00       0.00000e+00
 133.4000000       0.00000e+00       0.00000e+00
 133.5000000       0.00000e+00       0.00000e+00
 133.6000000       0.00000e+00       0.00000e+00
 133.7000000       0.00000e+00       0.00000e+00
 133.8000000       0.00000e+00       0.00000e+00
 133.9000000       0.00000e+00       0.00000e+00
 134.0000000       0.00000e+00       0.00000e+00
 134.1000000       0.00000e+00       0.00000e+00
 134.2000000       0.00000e+00       0.00000e+00
 134.3000000       0.00000e+00       0.00000e+00
 134.4000000       0.00000e+00       0.00000e+00
 134.5000000       0.00000e+00       0.00000e+00
 134.6000000       0.00000e+00       0.00000e+00
 134.7000000       0.00000e+00       0.00000e+00
 134.8000000       0.00000e+00       0.00000e+00
 134.9000000       0.00000e+00       0.00000e+00
 135.0000000       0.00000e+00       0.00000e+00
 135.1000000       0.00000e+00       0.00000e+00
 135.2000000       0.00000e+00       0.00000e+00
 135.3000000       0.00000e+00       0.00000e+00
 135.4000000       0.00000e+00       0.00000e+00
 135.5000000       0.00000e+00       0.00000e+00
 135.6000000       0.00000e+00       0.00000e+00
 135.7000000       0.00000e+00       0.00000e+00
 135.8000000       0.00000e+00       0.00000e+00
 135.9000000       0.00000e+00       0.00000e+00
 136.0000000       0.00000e+00       0.00000e+00
 136.1000000       0.00000e+00       0.00000e+00
 136.2000000       0.00000e+00       0.00000e+00
 136.3000000       0.00000e+00       0.00000e+00
 136.4000000       0.00000e+00       0.00000e+00
 136.5000000       0.00000e+00       0.00000e+00
 136.6000000       0.00000e+00       0.00000e+00
 136.7000000       0.00000e+00       0.00000e+00
 136.8000000       0.00000e+00       0.00000e+00
 136.9000000       0.00000e+00       0.00000e+00
 137.0000000       0.00000e+00       0.00000e+00
 137.1000000       0.00000e+00       0.00000e+00
 137.2000000       0.00000e+00       0.00000e+00
 137.3000000       0.00000e+00       0.00000e+00
 137.4000000       0.00000e+00       0.00000e+00
 137.5000000       0.00000e+00       0.00000e+00
 137.6000000       0.00000e+00       0.00000e+00
 137.7000000       0.00000e+00       0.00000e+00
 137.8000000       0.00000e+00       0.00000e+00
 137.9000000       0.00000e+00       0.00000e+00
 138.0000000       0.00000e+00       0.00000e+00
 138.1000000       0.00000e+00       0.00000e+00
 138.2000000       0.00000e+00       0.00000e+00
 138.3000000       0.00000e+00       0.00000e+00
 138.4000000       0.00000e+00       0.00000e+00
 138.5000000       0.00000e+00       0.00000e+00
 138.6000000       0.00000e+00       0.00000e+00
 138.7000000       0.00000e+00       0.00000e+00
 138.8000000       0.00000e+00       0.00000e+00
 138.9000000       0.00000e+00       0.00000e+00
 139.0000000       0.00000e+00       0.00000e+00
 139.1000000       0.00000e+00       0.00000e+00
 139.2000000       0.00000e+00       0.00000e+00
 139.3000000       0.00000e+00       0.00000e+00
 139.4000000       0.00000e+00       0.00000e+00
 139.5000000       0.00000e+00       0.00000e+00
 139.6000000       0.00000e+00       0.00000e+00
 139.7000000       0.00000e+00       0.00000e+00
 139.8000000       0.00000e+00       0.00000e+00
 139.9000000       0.00000e+00       0.00000e+00
