# Zn photoionisation cross section
# Alan Heays 2020-06-26
# references: yih1998 J. Korean. Phys. Soc. 1998 32:405, marr1969 http://stacks.iop.org/0022-3700/2/i=1/a=315, huebner2015 10.1016/j.pss.2014.11.022,
# wavelength: Wavelength (nm)
# photoabsorption: Photoabsorption cross section (cm2)
# photoionisation: Photoionisation cross section (cm2)
# 
# wavelength   photoabsorption   photoionisation
   0.1000000       1.98910e-20       1.98910e-20
   0.2000000       6.97428e-20       6.97428e-20
   0.3000000       1.62775e-19       1.62775e-19
   0.4000000       2.55807e-19       2.55807e-19
   0.5000000       3.48839e-19       3.48839e-19
   0.6000000       4.41871e-19       4.41871e-19
   0.7000000       5.34904e-19       5.34904e-19
   0.8000000       6.27936e-19       6.27936e-19
   0.9000000       7.20968e-19       7.20968e-19
   1.0000000       8.04206e-19       8.04206e-19
   1.1000000       8.80244e-19       8.80244e-19
   1.2000000       5.60368e-19       5.60368e-19
   1.3000000       2.04177e-19       2.04177e-19
   1.4000000       2.49009e-19       2.49009e-19
   1.5000000       2.93841e-19       2.93841e-19
   1.6000000       3.38672e-19       3.38672e-19
   1.7000000       3.83504e-19       3.83504e-19
   1.8000000       4.28336e-19       4.28336e-19
   1.9000000       4.73168e-19       4.73168e-19
   2.0000000       5.21171e-19       5.21171e-19
   2.1000000       5.88200e-19       5.88200e-19
   2.2000000       6.58400e-19       6.58400e-19
   2.3000000       7.28600e-19       7.28600e-19
   2.4000000       7.98800e-19       7.98800e-19
   2.5000000       8.69000e-19       8.69000e-19
   2.6000000       9.39200e-19       9.39200e-19
   2.7000000       1.00940e-18       1.00940e-18
   2.8000000       1.07960e-18       1.07960e-18
   2.9000000       1.14980e-18       1.14980e-18
   3.0000000       1.22223e-18       1.22223e-18
   3.1000000       1.30800e-18       1.30800e-18
   3.2000000       1.39600e-18       1.39600e-18
   3.3000000       1.48400e-18       1.48400e-18
   3.4000000       1.57200e-18       1.57200e-18
   3.5000000       1.66000e-18       1.66000e-18
   3.6000000       1.74800e-18       1.74800e-18
   3.7000000       1.83600e-18       1.83600e-18
   3.8000000       1.92400e-18       1.92400e-18
   3.9000000       2.01200e-18       2.01200e-18
   4.0000000       2.10100e-18       2.10100e-18
   4.1000000       2.19600e-18       2.19600e-18
   4.2000000       2.29200e-18       2.29200e-18
   4.3000000       2.38800e-18       2.38800e-18
   4.4000000       2.48400e-18       2.48400e-18
   4.5000000       2.58000e-18       2.58000e-18
   4.6000000       2.67600e-18       2.67600e-18
   4.7000000       2.77200e-18       2.77200e-18
   4.8000000       2.86800e-18       2.86800e-18
   4.9000000       2.96400e-18       2.96400e-18
   5.0000000       3.05988e-18       3.05988e-18
   5.1000000       3.15500e-18       3.15500e-18
   5.2000000       3.25000e-18       3.25000e-18
   5.3000000       3.34500e-18       3.34500e-18
   5.4000000       3.44000e-18       3.44000e-18
   5.5000000       3.53500e-18       3.53500e-18
   5.6000000       3.63000e-18       3.63000e-18
   5.7000000       3.72500e-18       3.72500e-18
   5.8000000       3.82000e-18       3.82000e-18
   5.9000000       3.91500e-18       3.91500e-18
   6.0000000       4.00925e-18       4.00925e-18
   6.1000000       4.09900e-18       4.09900e-18
   6.2000000       4.18800e-18       4.18800e-18
   6.3000000       4.27700e-18       4.27700e-18
   6.4000000       4.36600e-18       4.36600e-18
   6.5000000       4.45500e-18       4.45500e-18
   6.6000000       4.54400e-18       4.54400e-18
   6.7000000       4.63300e-18       4.63300e-18
   6.8000000       4.72200e-18       4.72200e-18
   6.9000000       4.81100e-18       4.81100e-18
   7.0000000       4.89913e-18       4.89913e-18
   7.1000000       4.98200e-18       4.98200e-18
   7.2000000       5.06400e-18       5.06400e-18
   7.3000000       5.14600e-18       5.14600e-18
   7.4000000       5.22800e-18       5.22800e-18
   7.5000000       5.31000e-18       5.31000e-18
   7.6000000       5.39200e-18       5.39200e-18
   7.7000000       5.47400e-18       5.47400e-18
   7.8000000       5.55600e-18       5.55600e-18
   7.9000000       5.63800e-18       5.63800e-18
   8.0000000       5.71905e-18       5.71905e-18
   8.1000000       5.79441e-18       5.79441e-18
   8.2000000       5.86882e-18       5.86882e-18
   8.3000000       5.94323e-18       5.94323e-18
   8.4000000       6.01764e-18       6.01764e-18
   8.5000000       6.09205e-18       6.09205e-18
   8.6000000       5.90820e-18       5.90820e-18
   8.7000000       5.97571e-18       5.97571e-18
   8.8000000       6.04714e-18       6.04714e-18
   8.9000000       6.11857e-18       6.11857e-18
   9.0000000       6.18957e-18       6.18957e-18
   9.1000000       6.25800e-18       6.25800e-18
   9.2000000       6.32600e-18       6.32600e-18
   9.3000000       6.39400e-18       6.39400e-18
   9.4000000       6.46200e-18       6.46200e-18
   9.5000000       6.53000e-18       6.53000e-18
   9.6000000       6.59800e-18       6.59800e-18
   9.7000000       6.66600e-18       6.66600e-18
   9.8000000       6.73400e-18       6.73400e-18
   9.9000000       6.80200e-18       6.80200e-18
  10.0000000       6.86963e-18       6.86963e-18
  10.1000000       6.93500e-18       6.93500e-18
  10.2000000       7.00000e-18       7.00000e-18
  10.3000000       7.06500e-18       7.06500e-18
  10.4000000       7.13000e-18       7.13000e-18
  10.5000000       7.19500e-18       7.19500e-18
  10.6000000       7.26000e-18       7.26000e-18
  10.7000000       7.32500e-18       7.32500e-18
  10.8000000       7.39000e-18       7.39000e-18
  10.9000000       7.45500e-18       7.45500e-18
  11.0000000       7.52000e-18       7.52000e-18
  11.1000000       7.58500e-18       7.58500e-18
  11.2000000       7.65000e-18       7.65000e-18
  11.3000000       7.71500e-18       7.71500e-18
  11.4000000       7.78000e-18       7.78000e-18
  11.5000000       7.84500e-18       7.84500e-18
  11.6000000       7.91000e-18       7.91000e-18
  11.7000000       7.97500e-18       7.97500e-18
  11.8000000       8.04000e-18       8.04000e-18
  11.9000000       8.10500e-18       8.10500e-18
  12.0000000       8.17067e-18       8.17067e-18
  12.1000000       8.24033e-18       8.24033e-18
  12.2000000       8.31066e-18       8.31066e-18
  12.3000000       8.38100e-18       8.38100e-18
  12.4000000       8.45133e-18       8.45133e-18
  12.5000000       8.52166e-18       8.52166e-18
  12.6000000       8.59199e-18       8.59199e-18
  12.7000000       8.66233e-18       8.66233e-18
  12.8000000       8.26099e-18       8.26099e-18
  12.9000000       8.08392e-18       8.08392e-18
  13.0000000       8.12924e-18       8.12924e-18
  13.1000000       8.17000e-18       8.17000e-18
  13.2000000       8.21000e-18       8.21000e-18
  13.3000000       8.25000e-18       8.25000e-18
  13.4000000       8.29000e-18       8.29000e-18
  13.5000000       8.33000e-18       8.33000e-18
  13.6000000       8.37000e-18       8.37000e-18
  13.7000000       8.41000e-18       8.41000e-18
  13.8000000       8.45000e-18       8.45000e-18
  13.9000000       8.49000e-18       8.49000e-18
  14.0000000       8.52913e-18       8.52913e-18
  14.1000000       8.56300e-18       8.56300e-18
  14.2000000       8.59600e-18       8.59600e-18
  14.3000000       8.62900e-18       8.62900e-18
  14.4000000       8.66200e-18       8.66200e-18
  14.5000000       8.69500e-18       8.69500e-18
  14.6000000       8.72800e-18       8.72800e-18
  14.7000000       8.76100e-18       8.76100e-18
  14.8000000       8.79400e-18       8.79400e-18
  14.9000000       8.82700e-18       8.82700e-18
  15.0000000       8.85888e-18       8.85888e-18
  15.1000000       8.88400e-18       8.88400e-18
  15.2000000       8.90800e-18       8.90800e-18
  15.3000000       8.93200e-18       8.93200e-18
  15.4000000       8.95600e-18       8.95600e-18
  15.5000000       8.98000e-18       8.98000e-18
  15.6000000       9.00400e-18       9.00400e-18
  15.7000000       9.02800e-18       9.02800e-18
  15.8000000       9.05200e-18       9.05200e-18
  15.9000000       9.07600e-18       9.07600e-18
  16.0000000       9.09925e-18       9.09925e-18
  16.1000000       9.11800e-18       9.11800e-18
  16.2000000       9.13600e-18       9.13600e-18
  16.3000000       9.15400e-18       9.15400e-18
  16.4000000       9.17200e-18       9.17200e-18
  16.5000000       9.19000e-18       9.19000e-18
  16.6000000       9.20800e-18       9.20800e-18
  16.7000000       9.22600e-18       9.22600e-18
  16.8000000       9.24400e-18       9.24400e-18
  16.9000000       9.26200e-18       9.26200e-18
  17.0000000       9.27913e-18       9.27913e-18
  17.1000000       9.29100e-18       9.29100e-18
  17.2000000       9.30200e-18       9.30200e-18
  17.3000000       9.31300e-18       9.31300e-18
  17.4000000       9.32400e-18       9.32400e-18
  17.5000000       9.33500e-18       9.33500e-18
  17.6000000       9.34600e-18       9.34600e-18
  17.7000000       9.35700e-18       9.35700e-18
  17.8000000       9.36800e-18       9.36800e-18
  17.9000000       9.37900e-18       9.37900e-18
  18.0000000       9.38938e-18       9.38938e-18
  18.1000000       9.39600e-18       9.39600e-18
  18.2000000       9.40200e-18       9.40200e-18
  18.3000000       9.40800e-18       9.40800e-18
  18.4000000       9.41400e-18       9.41400e-18
  18.5000000       9.42000e-18       9.42000e-18
  18.6000000       9.42600e-18       9.42600e-18
  18.7000000       9.43200e-18       9.43200e-18
  18.8000000       9.43800e-18       9.43800e-18
  18.9000000       9.44400e-18       9.44400e-18
  19.0000000       9.44938e-18       9.44938e-18
  19.1000000       9.45100e-18       9.45100e-18
  19.2000000       9.45200e-18       9.45200e-18
  19.3000000       9.45300e-18       9.45300e-18
  19.4000000       9.45400e-18       9.45400e-18
  19.5000000       9.45500e-18       9.45500e-18
  19.6000000       9.45600e-18       9.45600e-18
  19.7000000       9.45700e-18       9.45700e-18
  19.8000000       9.45800e-18       9.45800e-18
  19.9000000       9.45900e-18       9.45900e-18
  20.0000000       9.45937e-18       9.45937e-18
  20.1000000       9.45600e-18       9.45600e-18
  20.2000000       9.45200e-18       9.45200e-18
  20.3000000       9.44800e-18       9.44800e-18
  20.4000000       9.44400e-18       9.44400e-18
  20.5000000       9.44000e-18       9.44000e-18
  20.6000000       9.43600e-18       9.43600e-18
  20.7000000       9.43200e-18       9.43200e-18
  20.8000000       9.42800e-18       9.42800e-18
  20.9000000       9.42400e-18       9.42400e-18
  21.0000000       9.41950e-18       9.41950e-18
  21.1000000       9.41200e-18       9.41200e-18
  21.2000000       9.40400e-18       9.40400e-18
  21.3000000       9.39600e-18       9.39600e-18
  21.4000000       9.38800e-18       9.38800e-18
  21.5000000       9.38000e-18       9.38000e-18
  21.6000000       9.37200e-18       9.37200e-18
  21.7000000       9.36400e-18       9.36400e-18
  21.8000000       9.35600e-18       9.35600e-18
  21.9000000       9.34800e-18       9.34800e-18
  22.0000000       9.33962e-18       9.33962e-18
  22.1000000       9.32900e-18       9.32900e-18
  22.2000000       9.31800e-18       9.31800e-18
  22.3000000       9.30700e-18       9.30700e-18
  22.4000000       9.29600e-18       9.29600e-18
  22.5000000       9.28500e-18       9.28500e-18
  22.6000000       9.27400e-18       9.27400e-18
  22.7000000       9.26300e-18       9.26300e-18
  22.8000000       9.25200e-18       9.25200e-18
  22.9000000       9.24100e-18       9.24100e-18
  23.0000000       9.22962e-18       9.22962e-18
  23.1000000       9.21600e-18       9.21600e-18
  23.2000000       9.20200e-18       9.20200e-18
  23.3000000       9.18800e-18       9.18800e-18
  23.4000000       9.17400e-18       9.17400e-18
  23.5000000       9.16000e-18       9.16000e-18
  23.6000000       9.14600e-18       9.14600e-18
  23.7000000       9.13200e-18       9.13200e-18
  23.8000000       9.11800e-18       9.11800e-18
  23.9000000       9.10400e-18       9.10400e-18
  24.0000000       9.00672e-18       9.00672e-18
  24.1000000       8.40975e-18       8.40975e-18
  24.2000000       7.72951e-18       7.72951e-18
  24.3000000       7.04926e-18       7.04926e-18
  24.4000000       6.36901e-18       6.36901e-18
  24.5000000       5.68877e-18       5.68877e-18
  24.6000000       5.00852e-18       5.00852e-18
  24.7000000       4.42425e-18       4.42425e-18
  24.8000000       4.41583e-18       4.41583e-18
  24.9000000       4.50339e-18       4.50339e-18
  25.0000000       4.59095e-18       4.59095e-18
  25.1000000       4.67851e-18       4.67851e-18
  25.2000000       4.76607e-18       4.76607e-18
  25.3000000       4.85363e-18       4.85363e-18
  25.4000000       4.94119e-18       4.94119e-18
  25.5000000       5.02874e-18       5.02874e-18
  25.6000000       5.11630e-18       5.11630e-18
  25.7000000       5.20386e-18       5.20386e-18
  25.8000000       5.29142e-18       5.29142e-18
  25.9000000       5.37898e-18       5.37898e-18
  26.0000000       5.46654e-18       5.46654e-18
  26.1000000       5.55410e-18       5.55410e-18
  26.2000000       5.64166e-18       5.64166e-18
  26.3000000       5.72921e-18       5.72921e-18
  26.4000000       5.81677e-18       5.81677e-18
  26.5000000       5.90433e-18       5.90433e-18
  26.6000000       5.99189e-18       5.99189e-18
  26.7000000       6.07945e-18       6.07945e-18
  26.8000000       6.16701e-18       6.16701e-18
  26.9000000       6.25457e-18       6.25457e-18
  27.0000000       6.34213e-18       6.34213e-18
  27.1000000       6.42968e-18       6.42968e-18
  27.2000000       6.51724e-18       6.51724e-18
  27.3000000       6.60480e-18       6.60480e-18
  27.4000000       6.69236e-18       6.69236e-18
  27.5000000       6.77992e-18       6.77992e-18
  27.6000000       6.86748e-18       6.86748e-18
  27.7000000       6.95504e-18       6.95504e-18
  27.8000000       7.04259e-18       7.04259e-18
  27.9000000       7.13015e-18       7.13015e-18
  28.0000000       7.21771e-18       7.21771e-18
  28.1000000       7.30527e-18       7.30527e-18
  28.2000000       7.39283e-18       7.39283e-18
  28.3000000       7.47616e-18       7.47616e-18
  28.4000000       7.53416e-18       7.53416e-18
  28.5000000       7.58792e-18       7.58792e-18
  28.6000000       7.64169e-18       7.64169e-18
  28.7000000       7.69546e-18       7.69546e-18
  28.8000000       7.74923e-18       7.74923e-18
  28.9000000       7.80299e-18       7.80299e-18
  29.0000000       7.85676e-18       7.85676e-18
  29.1000000       7.91053e-18       7.91053e-18
  29.2000000       7.96429e-18       7.96429e-18
  29.3000000       8.01806e-18       8.01806e-18
  29.4000000       8.07183e-18       8.07183e-18
  29.5000000       8.12560e-18       8.12560e-18
  29.6000000       8.17936e-18       8.17936e-18
  29.7000000       8.23313e-18       8.23313e-18
  29.8000000       8.28690e-18       8.28690e-18
  29.9000000       8.34067e-18       8.34067e-18
  30.0000000       8.39443e-18       8.39443e-18
  30.1000000       8.44820e-18       8.44820e-18
  30.2000000       8.50197e-18       8.50197e-18
  30.3000000       8.55574e-18       8.55574e-18
  30.4000000       8.60681e-18       8.60681e-18
  30.5000000       8.64169e-18       8.64169e-18
  30.6000000       8.67388e-18       8.67388e-18
  30.7000000       8.70607e-18       8.70607e-18
  30.8000000       8.73826e-18       8.73826e-18
  30.9000000       8.77045e-18       8.77045e-18
  31.0000000       8.80264e-18       8.80264e-18
  31.1000000       8.83483e-18       8.83483e-18
  31.2000000       8.86702e-18       8.86702e-18
  31.3000000       8.89921e-18       8.89921e-18
  31.4000000       8.93140e-18       8.93140e-18
  31.5000000       8.96359e-18       8.96359e-18
  31.6000000       8.99578e-18       8.99578e-18
  31.7000000       9.02797e-18       9.02797e-18
  31.8000000       9.06016e-18       9.06016e-18
  31.9000000       9.09235e-18       9.09235e-18
  32.0000000       9.12454e-18       9.12454e-18
  32.1000000       9.15673e-18       9.15673e-18
  32.2000000       9.18892e-18       9.18892e-18
  32.3000000       9.23259e-18       9.23259e-18
  32.4000000       9.34514e-18       9.34514e-18
  32.5000000       9.46917e-18       9.46917e-18
  32.6000000       9.59320e-18       9.59320e-18
  32.7000000       9.71723e-18       9.71723e-18
  32.8000000       9.84127e-18       9.84127e-18
  32.9000000       9.96530e-18       9.96530e-18
  33.0000000       1.00893e-17       1.00893e-17
  33.1000000       1.02134e-17       1.02134e-17
  33.2000000       1.03374e-17       1.03374e-17
  33.3000000       1.04614e-17       1.04614e-17
  33.4000000       1.05627e-17       1.05627e-17
  33.5000000       1.05271e-17       1.05271e-17
  33.6000000       1.04688e-17       1.04688e-17
  33.7000000       1.04104e-17       1.04104e-17
  33.8000000       1.03521e-17       1.03521e-17
  33.9000000       1.02938e-17       1.02938e-17
  34.0000000       1.02354e-17       1.02354e-17
  34.1000000       1.01771e-17       1.01771e-17
  34.2000000       1.01188e-17       1.01188e-17
  34.3000000       1.00604e-17       1.00604e-17
  34.4000000       1.00021e-17       1.00021e-17
  34.5000000       9.94374e-18       9.94374e-18
  34.6000000       9.88540e-18       9.88540e-18
  34.7000000       9.82707e-18       9.82707e-18
  34.8000000       9.76873e-18       9.76873e-18
  34.9000000       9.71039e-18       9.71039e-18
  35.0000000       9.65205e-18       9.65205e-18
  35.1000000       9.59372e-18       9.59372e-18
  35.2000000       9.53538e-18       9.53538e-18
  35.3000000       9.47704e-18       9.47704e-18
  35.4000000       9.41870e-18       9.41870e-18
  35.5000000       9.36037e-18       9.36037e-18
  35.6000000       9.30203e-18       9.30203e-18
  35.7000000       9.24369e-18       9.24369e-18
  35.8000000       9.18535e-18       9.18535e-18
  35.9000000       9.04609e-18       9.04609e-18
  36.0000000       8.42132e-18       8.42132e-18
  36.1000000       7.71562e-18       7.71562e-18
  36.2000000       7.00992e-18       7.00992e-18
  36.3000000       6.38763e-18       6.38763e-18
  36.4000000       6.26573e-18       6.26573e-18
  36.5000000       6.22724e-18       6.22724e-18
  36.6000000       6.18875e-18       6.18875e-18
  36.7000000       6.15026e-18       6.15026e-18
  36.8000000       6.11176e-18       6.11176e-18
  36.9000000       6.07327e-18       6.07327e-18
  37.0000000       6.03478e-18       6.03478e-18
  37.1000000       5.99629e-18       5.99629e-18
  37.2000000       5.95779e-18       5.95779e-18
  37.3000000       5.91930e-18       5.91930e-18
  37.4000000       5.89234e-18       5.89234e-18
  37.5000000       5.93458e-18       5.93458e-18
  37.6000000       5.98834e-18       5.98834e-18
  37.7000000       6.04211e-18       6.04211e-18
  37.8000000       6.09588e-18       6.09588e-18
  37.9000000       6.14965e-18       6.14965e-18
  38.0000000       6.20341e-18       6.20341e-18
  38.1000000       6.25718e-18       6.25718e-18
  38.2000000       6.31095e-18       6.31095e-18
  38.3000000       6.36471e-18       6.36471e-18
  38.4000000       6.41848e-18       6.41848e-18
  38.5000000       6.47225e-18       6.47225e-18
  38.6000000       6.52602e-18       6.52602e-18
  38.7000000       6.57978e-18       6.57978e-18
  38.8000000       6.63565e-18       6.63565e-18
  38.9000000       6.70412e-18       6.70412e-18
  39.0000000       6.77469e-18       6.77469e-18
  39.1000000       6.84526e-18       6.84526e-18
  39.2000000       6.91583e-18       6.91583e-18
  39.3000000       6.98640e-18       6.98640e-18
  39.4000000       7.05697e-18       7.05697e-18
  39.5000000       7.12754e-18       7.12754e-18
  39.6000000       7.19811e-18       7.19811e-18
  39.7000000       7.26868e-18       7.26868e-18
  39.8000000       7.33925e-18       7.33925e-18
  39.9000000       7.40982e-18       7.40982e-18
